6.900000000000000000e+01,1.000000000000000000e+00,1.000000000000000000e+00,-5.391760575609382856e-03,-4.975025035376928056e-03,-4.509943685895022834e-03,-3.999143818166705534e-03,-3.450332613658767429e-03,-2.875340564468394870e-03,-2.288801309009861999e-03,-1.706642459695480651e-03,-1.144575267914439871e-03,-6.167533976534691218e-04,-1.347407751306753582e-04,2.931142225006475987e-04,6.618799238328145927e-04,9.699096439745996927e-04,1.218539155635251251e-03,1.411745664489677532e-03,1.555808371941900560e-03,1.658938003748169736e-03,1.730813946693747366e-03,1.781977182319116745e-03,1.823083836967388490e-03,1.864094200135836023e-03,1.913506571585945389e-03,1.977759508843560544e-03,2.060938992749068721e-03,2.164903707897287803e-03,2.289854981737700704e-03,2.435267663799834618e-03,2.601029298688969753e-03,2.788613758808071181e-03,3.002111738701642406e-03,3.248964821414740932e-03,3.540303155847454152e-03,3.890820295980552696e-03,4.318141346137404496e-03,4.841714117145867226e-03,5.481340465298259468e-03,6.255481899582521557e-03,7.179454401591252484e-03,8.263649361785896028e-03,9.511956692870185068e-03,1.092055566638756511e-02,1.247719228412646000e-02,1.416106264262963384e-02,1.594346599062155048e-02,1.778934398664384908e-02,1.965963357445744963e-02,2.151416428768260572e-02,2.331475121773148376e-02,2.502815780962202447e-02,2.662865607569025322e-02,2.809995693652571000e-02,2.943633527301823746e-02,3.064286853904578042e-02,3.173483171943464881e-02,3.273638543837897180e-02,3.367873062775988274e-02,3.459790454336640619e-02,3.553237839524931579e-02,3.652058428522543532e-02,3.759845866097079325e-02,3.879707043635149261e-02,4.014042283398749217e-02,4.164357536485762540e-02,4.331128637129309789e-02,4.513736465898918193e-02,4.710484804093319211e-02,4.918705694885105312e-02,5.134949592545001024e-02,5.355246382085147860e-02,5.575410828768456728e-02,5.791356230945770428e-02,5.999376857038238309e-02,6.196364027172922978e-02,6.379929178590079686e-02,6.548419105143711560e-02,6.700824721129142181e-02,6.836601150679921801e-02,6.955428012723634257e-02,7.056945447101745095e-02,7.140507804117522672e-02,7.204998037624174567e-02,7.248735442848755484e-02,7.269494512103567840e-02,7.264639949220617898e-02,7.231367792737476707e-02,7.167025032175552979e-02,7.069467573222142087e-02,6.937411741882272553e-02,6.770735935388250137e-02,6.570695104894240524e-02,6.340019625889407873e-02,6.082880425896651511e-02,5.804714576689862238e-02,5.511920613303370603e-02,5.211449340098656818e-02,4.910329430952457136e-02,4.615173181311216927e-02,4.331706911410054123e-02,4.064366945266359443e-02,3.815998009759798831e-02,3.587684518605721573e-02,3.378733828397844502e-02,3.186813106199024026e-02,3.008218467897198073e-02,2.838234639469133444e-02,2.671539269578708520e-02,2.502617836689204067e-02,2.326167451008840856e-02,2.137473729308322565e-02,1.932749956039327838e-02,1.709433297879658573e-02,1.466430657365051272e-02,1.204293423918662356e-02,9.252884413691030499e-03,6.333364047813399254e-03,3.338076755702371057e-03,3.318854699862307310e-04,-2.613500756831757792e-03,-5.424395160111668106e-03,-8.030149597205736567e-03,-1.036799139943303701e-02,-1.238737237861636462e-02,-1.405344463614468901e-02,-1.534924202172580250e-02,-1.627625257350704194e-02,-1.685326056892769500e-02,-1.711354920932798077e-02,-1.710077889986376387e-02,-1.686405833468958282e-02,-1.645284498677701546e-02,-1.591232645049479519e-02,-1.527985820120594113e-02,-1.458286738341480794e-02,-1.383836269762539831e-02,-1.305386616822029784e-02,-1.222934404979926851e-02,-1.135966792777855922e-02,-1.043725447499968713e-02,-9.454696731671969820e-03,-8.407280090319067811e-03,-7.295218062275536305e-03,-6.125337538610936029e-03,-4.911923374001264317e-03,-3.676546776149908820e-03,-2.446917497506609102e-03,-1.255007775897803730e-03,-1.347677599642360918e-04,8.803177013077233010e-04,1.759657472997565785e-03,2.477779862550636217e-03,3.016117518142217516e-03,3.364129161544898976e-03,3.519644874865451509e-03,3.488477484980647032e-03,3.283461397144233837e-03,2.923103768280865822e-03,2.429992664444895981e-03,1.829089477008881285e-03,1.146068109053137917e-03,4.058810241949493470e-04,-3.683286016745519384e-04,-1.155950752932053283e-03,-1.939319441808276057e-03,-2.703863163876519919e-03,-3.438007276918828448e-03,-4.132826548690246050e-03,-4.781474820092765365e-03,-5.378439060246118474e-03,-5.918693175661739539e-03,-6.396920572957029427e-03,-6.807058888631945318e-03,-7.142359887897612239e-03,-7.395966769822142142e-03,-7.561838044163663591e-03,-7.635789352600577673e-03,-7.616452994333124636e-03,-7.506010508137869047e-03,-7.310612991454698041e-03,-7.040439901269649955e-03,-6.709369096464549639e-03,-6.334290354251067082e-03,-5.934155594301425765e-03,-5.528846956136822081e-03,-5.137917199582310405e-03,-4.779300885929821038e-03,-4.468150588367865439e-03,-4.215918880750220941e-03,-4.029704323841310810e-03,-3.911821636528215775e-03,-3.859582483216370853e-03,-3.865316851738877062e-03,-3.916697800282539256e-03,-3.997461716950383506e-03,-4.088570450837900570e-03,-4.169710364521342881e-03,-4.220905848604869157e-03,-4.224054137884059729e-03,-4.164277206318641074e-03,-4.031011780598338715e-03,-3.818751657508028495e-03,-3.527401445380253832e-03,-3.162263754168337816e-03,-2.733678714836479742e-03,-2.256291293442804890e-03,-1.747939457180670928e-03,-1.228259432905428944e-03,-7.171998997116351251e-04,-2.336270302722580664e-04,2.058884507697608917e-04,5.880757297869065479e-04,9.037303314599231434e-04,1.148192268583267091e-03,1.321487929902860755e-03,1.428114367249291167e-03,1.476494786304848993e-03,1.478175146777453881e-03,1.446818820948894907e-03,1.397042323459201079e-03,1.343206455622059396e-03,1.298373965808318105e-03,1.273640484590403106e-03,1.277944421138227198e-03,1.318355515607067246e-03,1.400759753610574671e-03,1.530764070686643384e-03,1.714569382623572788e-03,1.959595261941988239e-03,2.274740150625237899e-03,2.670195864930877128e-03,3.156725188242930340e-03,3.744344007712017801e-03,4.440393041666316175e-03,5.247008129213809845e-03,6.158066184596184059e-03,7.155817293651088769e-03,8.207557267332622059e-03,9.262808683331584872e-03,1.025152672508290383e-02,1.108377446070216502e-02,1.165111174563218319e-02,1.182966106890819512e-02,1.148451634542999901e-02,1.047492469257293828e-02,8.659569296346650985e-03,5.901327559406457403e-03,2.071056530697459874e-03,-2.949716811777296655e-03,-9.266870444332856935e-03,-1.697177660432554885e-02,-2.613848799001535286e-02,-3.681931508900773004e-02,-4.903864486632276282e-02,-6.278558722230771771e-02,-7.800669308914207067e-02,-9.460028034288470167e-02,-1.124136706337811181e-01,-1.312439908108355424e-01,-1.508424634043543933e-01,-1.709216285973517990e-01,-1.911647691419295081e-01,-2.112367762332875709e-01,-2.307956703599370052e-01,-2.495040129358425118e-01,-2.670395920257331301e-01,-2.831050920476659849e-01,-2.974369641628377137e-01,-3.098142523373667023e-01,-3.200684077162473384e-01,-3.280949264775360752e-01,-3.338670367522883486e-01,-3.374508937409024800e-01,-3.390210073859555862e-01,-3.388740151995644490e-01,-3.374385674203228547e-01,-3.352791115229743490e-01,-3.330916756554609393e-01,-3.316902443832128733e-01,-3.319828985243353237e-01,-3.349375072851066282e-01,-3.415375782291794615e-01,-3.527300519088399922e-01,-3.693681478821547737e-01,-3.921533665299695715e-01,-4.215811130417798092e-01,-4.578940603107560792e-01,-5.010464424398395344e-01,-5.506813340481314656e-01,-6.061221612611911169e-01,-6.663796126431138500e-01,-7.301755308165479574e-01,-7.959853512578788370e-01,-8.620993800969890541e-01,-9.267006339722608788e-01,-9.879539140402329167e-01,-1.044098503922628485e+00,-1.093536311610753931e+00,-1.134908365132307972e+00,-1.167154452291263800e+00,-1.189552583734954760e+00,-1.201736687983330887e+00,-1.203692680571052609e+00,-1.195734809119120223e+00,-1.178465742507680769e+00,-1.152724930058511399e+00,-1.119530097356377762e+00,-1.080016433715698332e+00,-1.035377337998176106e+00,-9.868098175935114957e-01,-9.354669316990972261e-01,-8.824189835925793091e-01,-8.286244037500997139e-01,-7.749105062295194024e-01,-7.219637092720081473e-01,-6.703283806193540695e-01,-6.204130526330963180e-01,-5.725023419454131623e-01,-5.267726605010951690e-01,-4.833098347483354429e-01,-4.421270494910834459e-01,-4.031820026791449463e-01,-3.663926300241741041e-01,-3.316510849080606671e-01,-2.988357950598106716e-01,-2.678214163202305986e-01,-2.384865015397681642e-01,-2.107188403801356635e-01,-1.844186737683480848e-01,-1.595001617428069285e-01,-1.358914965478007220e-01,-1.135339826304528621e-01,-9.238034486071686202e-02,-7.239250327744985170e-02,-5.353905999252522169e-02,-3.579277078994564515e-02,-1.912828635892171308e-02,-3.520381540969491803e-03,1.105727083847746553e-02,2.463289011776474691e-02,3.723710721224992443e-02,4.890331685053581068e-02,5.966786475521379529e-02,6.957001753415327505e-02,7.865170584986311275e-02,8.695713261062540389e-02,9.453237777947240406e-02,1.014250547175756662e-01,1.076839658065980310e-01,1.133586697110125913e-01,1.184989187738720723e-01,1.231540148941034085e-01,1.273722064634906781e-01,1.312002235308916132e-01,1.346829322346856372e-01,1.378630164975671313e-01,1.407806201461833939e-01,1.434729317059524889e-01,1.459737348832070292e-01,1.483129931342981045e-01,1.505165529184692985e-01,1.526060174983891182e-01,1.545987937672510526e-01,1.565082771835523967e-01,1.583441437154047837e-01,1.601127857659092324e-01,1.618179981365721332e-01,1.634619866550647560e-01,1.650466326229908798e-01,1.665747935203540364e-01,1.680513541234310848e-01,1.694838131265083703e-01,1.708823539087882815e-01,1.722594895449835739e-01,1.736294124131144700e-01,1.750071352940490155e-01,1.764074680989612953e-01,1.778439029016171125e-01,1.793275617482579243e-01,1.808663993455122132e-01,1.824647734435685953e-01,1.841233472579114072e-01,1.858392008401067441e-01,1.876060662204217799e-01,1.894146987600402732e-01,1.912534523890268290e-01,1.931091053871903107e-01,1.949679136500443444e-01,1.968167916398890493e-01,1.986444601925677622e-01,2.004423730820398541e-01,2.022052812429194213e-01,2.039314102805966644e-01,2.056223196383240581e-01,2.072825151222014717e-01,2.089188383955705997e-01,2.105396336173670224e-01,2.121537374854694236e-01,2.137694280518344647e-01,2.153935180509153335e-01,2.170307404023397724e-01,2.186834794556951345e-01,2.203518135523488963e-01,2.220337843472540151e-01,2.237257989219337551e-01,2.254230981091903119e-01,2.271202831123292909e-01,2.288119446664256540e-01,2.304934164094323001e-01,2.321615834478836793e-01,2.338156235956079243e-01,2.354575735266896952e-01,2.370926233842532427e-01,2.387290514734108915e-01,2.403777702479801825e-01,2.420515335610165242e-01,2.437639010301901055e-01,2.455280775906905077e-01,2.473557498723486237e-01,2.492560261772352181e-01,2.512345876921978638e-01,2.532931799906730785e-01,2.554295582836746403e-01,2.576379228017063872e-01,2.599097792420378417e-01,2.622350618687288581e-01,2.646032903848059559e-01,2.670045484670473535e-01,2.694301756587549890e-01,2.718731761344285180e-01,2.743283948739458356e-01,2.767925130087556251e-01,2.792639302027002390e-01,2.817426250702056434e-01,2.842300483799260480e-01,2.867289981753676775e-01,2.892433553485405096e-01,2.917776281022755325e-01,2.943363968674486686e-01,2.969237979549262940e-01,2.995431060985488947e-01,3.021963998327507062e-01,3.048842841064348108e-01,3.076056647806030830e-01,3.103576115014154979e-01,3.131354035755474774e-01,3.159328452725245762e-01,3.187428379000417644e-01,3.215581140598090526e-01,3.243720504011994854e-01,3.271795157161508927e-01,3.299776743380449795e-01,3.327665587560729166e-01,3.355492023646069466e-01,3.383312699221766029e-01,3.411203128352394698e-01,3.439248361077448246e-01,3.467532856074425074e-01,3.496129800317077096e-01,3.525090239963013516e-01,3.554433085195184416e-01,3.584137326670890911e-01,3.614137513194594087e-01,3.644323349718615601e-01,3.674544115051628368e-01,3.704617631316946547e-01,3.734342042439289799e-01,3.763508243113335983e-01,3.791911637915823530e-01,3.819362578860978630e-01,3.845694850440268819e-01,3.870771770455668781e-01,3.894490141289568275e-01,3.916782715011188909e-01,3.937619449101849023e-01,3.957007143018481110e-01,3.974987029629279411e-01,3.991630371620776274e-01,4.007032156122540822e-01,4.021302689727226376e-01,4.034557105087894224e-01,4.046903563357734379e-01,4.058431538344648981e-01,4.069201593675630946e-01,4.079237899402748946e-01,4.088524538160175914e-01,4.097006095576031792e-01,4.104592284039668137e-01,4.111165799897744666e-01,4.116592100367623686e-01,4.120729308066569674e-01,4.123436648690414486e-01,4.124580976710160440e-01,4.124042160191268569e-01,4.121718133090401248e-01,4.117529206907745709e-01,4.111420093313248314e-01,4.103358286585747638e-01,4.093328802066776850e-01,4.081326457676759945e-01,4.067347077578841175e-01,4.051378733736955562e-01,4.033394290770292434e-01,4.013346869346446355e-01,3.991169617509251477e-01,3.966780258792869107e-01,3.940089703193364046e-01,3.911012996433904099e-01,3.879480471148012977e-01,3.845447365290519670e-01,3.808901020119682679e-01,3.769865526013079782e-01,3.728403899031395019e-01,3.684617328193828811e-01,3.638640425645595089e-01,3.590631939634622016e-01,3.540761946152048978e-01,3.489197618098479059e-01,3.436089471655063288e-01,3.381559342884544739e-01,3.325691021262248692e-01,3.268524142969792545e-01,3.210051629438310794e-01,3.150221187767009434e-01,3.088941543504252207e-01,3.026092961024295369e-01,2.961539869396435654e-01,2.895143089821142213e-01,2.826770712960753329e-01,2.756308221808101977e-01,2.683668240755500145e-01,2.608798879232629431e-01,2.531688952994569641e-01,2.452369239054000005e-01,2.370910504445388756e-01,2.287420122170726877e-01,2.202039030263903685e-01,2.114939544173927155e-01,2.026322831941201330e-01,1.936414232100260313e-01,1.845455697023380415e-01,1.753696252881828954e-01,1.661382077089081366e-01,1.568747519971957494e-01,1.476007772758735070e-01,1.383353613431862750e-01,1.290949054295102427e-01,1.198932987205123396e-01,1.107425046606348301e-01,1.016534146527513782e-01,9.263669318003622810e-02,8.370338460985746187e-02,7.486521828976386295e-02,6.613467876968402714e-02,5.752493224736955624e-02,4.904967541150894589e-02,4.072294131303529074e-02,3.255885791608693902e-02,2.457134185520061867e-02,1.677375570454147508e-02,9.178615338029050275e-03,1.797428661540151872e-03,-5.359323709589802753e-03,-1.228213459863639924e-02,-1.896245069233604141e-02,-2.539275446334253103e-02,-3.156670081493958419e-02,-3.747916672943581162e-02,-4.312609704455691584e-02,-4.850417072818419967e-02,-5.361045712572574951e-02,-5.844225656250828099e-02,-6.299720652618270855e-02,-6.727358894795133770e-02,-7.127071054793031324e-02,-7.498926481194660709e-02,-7.843164811680448933e-02,-8.160222097529505614e-02,-8.450749553930554658e-02,-8.715624785139941544e-02,-8.955957575218108369e-02,-9.173090034107413138e-02,-9.368586330074241131e-02,-9.544205419128283518e-02,-9.701852054746222531e-02,-9.843504887913187562e-02,-9.971124938208039690e-02,-1.008655356602568692e-01,-1.019141215861092548e-01,-1.028701226123329981e-01,-1.037428078073203003e-01,-1.045370626771147393e-01,-1.052531560384362130e-01,-1.058869109648971629e-01,-1.064303483197473615e-01,-1.068727983796985970e-01,-1.072023863011334205e-01,-1.074077312349108887e-01,-1.074796640039920870e-01,-1.074127531901642313e-01,-1.072064491650826790e-01,-1.068657333005202242e-01,-1.064012635687669878e-01,-1.058290703155876089e-01,-1.051698548386170162e-01,-1.044479034787089283e-01,-1.036895899262733345e-01,-1.029214784329683802e-01,-1.021681974797811754e-01,-1.014504004140555776e-01,-1.007831121708877564e-01,-1.001746137707446027e-01,-9.962590459403714016e-02,-9.913078047823092875e-02,-9.867658245336277667e-02,-9.824560082614694490e-02,-9.781699566974462468e-02,-9.736901446652179715e-02,-9.688126002403950332e-02,-9.633675464898933116e-02,-9.572356355159933328e-02,-9.503579765777837862e-02,-9.427391347482909356e-02,-9.344433682502943650e-02,-9.255851810225501630e-02,-9.163157204059665939e-02,-9.068067802625146001e-02,-8.972340086896316014e-02,-8.877603958168488185e-02,-8.785210036685241197e-02,-8.696104872730582580e-02,-8.610752148324117561e-02,-8.529109973234122455e-02,-8.450662937491758286e-02,-8.374501215635654638e-02,-8.299436878010270358e-02,-8.224144071051767146e-02,-8.147304601404342650e-02,-8.067739238659174528e-02,-7.984509748314048971e-02,-7.896983683994163172e-02,-7.804861316543917904e-02,-7.708170979195605454e-02,-7.607242064910967050e-02,-7.502662852656222237e-02,-7.395227684369025389e-02,-7.285877749678737469e-02,-7.175639338364422914e-02,-7.065559230809835556e-02,-6.956631784708064425e-02,-6.849713285800691775e-02,-6.745427033999570887e-02,-6.644073241885467551e-02,-6.545567259316545372e-02,-6.449431387311310715e-02,-6.354853612280954300e-02,-6.260805596713250876e-02,-6.166195278603572860e-02,-6.070024326278081889e-02,-5.971524814304855766e-02,-5.870257622171540235e-02,-5.766164207163464867e-02,-5.659570661365062594e-02,-5.551147603187629037e-02,-5.441833953648041872e-02,-5.332736667186291357e-02,-5.225018319592487914e-02,-5.119780463388572816e-02,-5.017948877175926886e-02,-4.920170530851545460e-02,-4.826737723942247510e-02,-4.737555938454633686e-02,-4.652163966866792316e-02,-4.569800825106926090e-02,-4.489502116456860203e-02,-4.410204757433651424e-02,-4.330844761816743382e-02,-4.250443216773048399e-02,-4.168181703562940515e-02,-4.083467000470313024e-02,-3.995980896764450563e-02,-3.905711030454218913e-02,-3.812962836861344407e-02,-3.718352370646767213e-02,-3.622772677015240889e-02,-3.527323572305389454e-02,-3.433204464512353005e-02,-3.341585062676864087e-02,-3.253476981406043522e-02,-3.169626689776800649e-02,-3.090442796368393988e-02,-3.015965896638090130e-02,-2.980484053594195312e-02,-2.830518408035421693e-02,-2.763087774879545780e-02,-2.574436733385892032e-02,-2.524788485839705651e-02,-2.479432681246308140e-02,-2.436299533322135863e-02,-2.393334086151744852e-02,-2.348639301307726968e-02,-2.128557333882991065e-02,-2.091815715157691394e-02,-2.050412470667024867e-02,-2.003254484347009173e-02,-1.949856935896261689e-02,-1.890348996960903444e-02,-1.825419472638744808e-02,-1.756218882846677376e-02,-1.684232651249036733e-02,-1.611131855646282321e-02,-1.538607071052867752e-02,-1.468198209766680834e-02,-1.401139784438374183e-02,-1.338239737508152907e-02,-1.279802428592562158e-02,-1.225601930556208946e-02,-1.174914203884120170e-02,-1.126613830692582696e-02,-1.079324209433431270e-02,-1.031592207394749910e-02,-9.820567005281829326e-03,-9.295935188901696331e-03,-7.611566280613399869e-03,-6.275181846634282114e-03,-5.495121119432182406e-03,-4.577872670384073098e-03,-2.073146889364378253e-03,-1.872303396764665685e-03,-2.254464469889222444e-03,2.004540920555248750e-03,4.158463501402824038e-03,3.032026777481180296e-03,1.245474650234342819e-03,4.895608881083512651e-03,4.142502984112269269e-03,3.456486553775552258e-03,2.880860977355253864e-03,7.509793596284406250e-03,0.000000000000000000e+00,0.000000000000000000e+00,0.000000000000000000e+00,0.000000000000000000e+00,0.000000000000000000e+00,0.000000000000000000e+00,0.000000000000000000e+00,0.000000000000000000e+00,0.000000000000000000e+00,0.000000000000000000e+00,0.000000000000000000e+00,0.000000000000000000e+00
7.400000000000000000e+01,1.000000000000000000e+00,1.000000000000000000e+00,5.195573487303611904e-02,5.188746625942174812e-02,5.181339815528857029e-02,5.172765837053245469e-02,5.162261496390593146e-02,5.148965353757040814e-02,5.132002610424884342e-02,5.110570172443706927e-02,5.084016092908662937e-02,5.051905748714647509e-02,5.014066684942421886e-02,4.970608081660408961e-02,4.921915226921812214e-02,4.868620497270885472e-02,4.811552365434104694e-02,4.751665533432754274e-02,4.689957522531573025e-02,4.627378924314114877e-02,4.564746301915091620e-02,4.502667867312282884e-02,4.441491126865023537e-02,4.381278138519510007e-02,4.321809493380233957e-02,4.262615237520436806e-02,4.203029736259607935e-02,4.142265895451801433e-02,4.079501993940268939e-02,4.013972913885417021e-02,3.945056902539412214e-02,3.872348967828107696e-02,3.795713231218914713e-02,3.715308895494771196e-02,3.631586925754416717e-02,3.545257209611635957e-02,3.457229450996168740e-02,3.368534425640361957e-02,3.280233949878404859e-02,3.193327885881364070e-02,3.108666134279494675e-02,3.026873759463031069e-02,2.948296854750658350e-02,2.872974535120279699e-02,2.800640045179247917e-02,2.730752266992134483e-02,2.662556337820488547e-02,2.595168004547252980e-02,2.527672508474317070e-02,2.459226576788861932e-02,2.389151364173484546e-02,2.317005110238510440e-02,2.242627592040881759e-02,2.166153601211888782e-02,2.087997314377129307e-02,2.008811671167793494e-02,1.929427592033578637e-02,1.850778927187183773e-02,1.773820211561210822e-02,1.699444555028243806e-02,1.628408490905523115e-02,1.561269398914813360e-02,1.498338503618229511e-02,1.439649672303107766e-02,1.384945040568080765e-02,1.333682771720099379e-02,1.285073744964682421e-02,1.238148920161725661e-02,1.191851561579373997e-02,1.145143757329545806e-02,1.097115058078425298e-02,1.047080276991097479e-02,9.946537295590106298e-03,9.397906422874613072e-03,8.827924785226677964e-03,8.242775107482515004e-03,7.651200258970122618e-03,7.063638197830416667e-03,6.491187505621619919e-03,5.944511654048274286e-03,5.432792022720501351e-03,4.962835076454490818e-03,4.538431073848354404e-03,4.160032513387656311e-03,3.824773759956139746e-03,3.526816619533535476e-03,3.257984384445413665e-03,3.008626000908511903e-03,2.768628041117268419e-03,2.528467166735728910e-03,2.280177224756727537e-03,2.018111238495460310e-03,1.739422459389449458e-03,1.444244261573030290e-03,1.135573915087261356e-03,8.188705701786627190e-04,5.014045442385643703e-04,1.914362598128180847e-04,-1.026793229449061116e-04,-3.733790544000938766e-04,-6.147040163890815949e-04,-8.229790351063694673e-04,-9.972912390052740984e-04,-1.139701570612514829e-03,-1.255154994985176794e-03,-1.351094846980194480e-03,-1.436810920640959471e-03,-1.522572728504564647e-03,-1.618630891756102797e-03,-1.734196384881943071e-03,-1.876512045744654043e-03,-2.050107496615658116e-03,-2.256289304728508784e-03,-2.492885318572756956e-03,-2.754246892757888140e-03,-3.031505515808443577e-03,-3.313057227222187141e-03,-3.585203887682081401e-03,-3.832861936410167630e-03,-4.040289249868525036e-03,-4.191816391670409765e-03,-4.272546512781505088e-03,-4.268966432951500078e-03,-4.169433717570193536e-03,-3.964524594990939850e-03,-3.647229311573776857e-03,-3.213002531558669436e-03,-2.659705970202846936e-03,-1.987470114915517502e-03,-1.198467079300010504e-03,-2.965931948095441449e-04,7.128887045967944930e-04,1.823663434294883149e-03,3.028566033631714064e-03,4.319654717168624862e-03,5.688194584663561204e-03,7.124627623039857249e-03,8.618593709748375437e-03,1.015902666692767610e-02,1.173430683264640832e-02,1.333242601508659655e-02,1.494113334467157307e-02,1.654807149624235724e-02,1.814093697969500207e-02,1.970771043474888601e-02,2.123704604959208639e-02,2.271894614582028321e-02,2.414579080704913616e-02,2.551364624858296418e-02,2.682362539064614415e-02,2.808298764367805900e-02,2.930567066398577503e-02,3.051203785397941376e-02,3.172774824647909414e-02,3.298176369250415546e-02,3.430360915258381937e-02,3.572009528915082860e-02,3.725176819826168245e-02,3.890937308427812324e-02,4.069064108919388800e-02,4.257773441531325503e-02,4.453567706628032419e-02,4.651201748314565121e-02,4.843783163118984408e-02,5.023005153426425562e-02,5.179503284817024711e-02,5.303322357382751762e-02,5.384472356437898510e-02,5.413543444544185318e-02,5.382342062630152135e-02,5.284503372219009204e-02,5.116027814516493216e-02,4.875685149986770661e-02,4.565235798443263021e-02,4.189440253511950152e-02,3.755857426144419003e-02,3.274458638104297409e-02,2.757093083011635457e-02,2.216835561558239132e-02,1.667247756401192549e-02,1.121603282140740815e-02,5.921518430207945403e-03,8.950651599442029658e-04,-3.777769479376916033e-03,-8.033916464438082064e-03,-1.183244714190713996e-02,-1.515238278726921406e-02,-1.798933162788453333e-02,-2.035163435814268951e-02,-2.225653628647196111e-02,-2.372672928263500416e-02,-2.478750968356667472e-02,-2.546473622518238833e-02,-2.578366372657504846e-02,-2.576858415954511733e-02,-2.544311225527400369e-02,-2.483094415232254409e-02,-2.395695148416840045e-02,-2.284847955233279201e-02,-2.153665317794793699e-02,-2.005740661217989690e-02,-1.845194257256815851e-02,-1.676640442411467952e-02,-1.505066801086773695e-02,-1.335630305199186733e-02,-1.173390398898575306e-02,-1.023011558343877268e-02,-8.884735410161222202e-03,-7.728231830383750812e-03,-6.779898448958727314e-03,-6.046744425511052339e-03,-5.523143581032531439e-03,-5.191234279286610631e-03,-5.022066562125059551e-03,-4.977530466282015578e-03,-5.013109187427649757e-03,-5.081405448109350617e-03,-5.136227617993709312e-03,-5.136878590973660737e-03,-5.052185696735270876e-03,-4.863768040557343159e-03,-4.568124073676231578e-03,-4.177347662441075610e-03,-3.718516655726447368e-03,-3.231879681800715713e-03,-2.767917042032193645e-03,-2.383323206078093084e-03,-2.136008405303580632e-03,-2.079356832775321445e-03,-2.256258352945714456e-03,-2.693764242763930453e-03,-3.399355325743714292e-03,-4.359607452169332945e-03,-5.541589910001992574e-03,-6.896813399722527549e-03,-8.367061335693001464e-03,-9.891057926143266218e-03,-1.141075676032772546e-02,-1.287620002815608768e-02,-1.424838882004391891e-02,-1.550017861434018623e-02,-1.661558183051464743e-02,-1.758794323196891801e-02,-1.841738980943607301e-02,-1.910788938256559669e-02,-1.966421791426156002e-02,-2.008911179502748112e-02,-2.038085803791188713e-02,-2.053155430521009378e-02,-2.052624107953089985e-02,-2.034306015226167511e-02,-1.995453551768249997e-02,-1.933001796089475754e-02,-1.843928392594957472e-02,-1.725721898133572227e-02,-1.576942701668876401e-02,-1.397849944565571732e-02,-1.191058992111284666e-02,-9.621876115876349875e-03,-7.204426023456875217e-03,-4.790921923508680187e-03,-2.557672381866857129e-03,-7.253882062208970088e-04,4.427070880021949698e-04,6.457376664240530549e-04,-4.468403669030615870e-04,-3.184160252447299725e-03,-7.920013913001370739e-03,-1.499655447307012002e-02,-2.472640420325311617e-02,-3.737427385058567086e-02,-5.313948906382202908e-02,-7.214095870083883644e-02,-9.440613451721195648e-02,-1.198654890514337379e-01,-1.483539036872680572e-01,-1.796199035922385612e-01,-2.133429105324640418e-01,-2.491578212292119565e-01,-2.866851976843390881e-01,-3.255640244784411275e-01,-3.654828175377555222e-01,-4.062046573420005080e-01,-4.475826385795186879e-01,-4.895637321765435312e-01,-5.321804903150628707e-01,-5.755311330196531960e-01,-6.197495594242329320e-01,-6.649678903603976066e-01,-7.112750614596974330e-01,-7.586757290386391128e-01,-8.070545140155633845e-01,-8.561509466004060265e-01,-9.055494690593874907e-01,-9.546862986496865711e-01,-1.002871816363880786e+00,-1.049324858948042394e+00,-1.093214613018491432e+00,-1.133706437390868738e+00,-1.170009065091742961e+00,-1.201421227826739546e+00,-1.227374795314015499e+00,-1.247469486364653379e+00,-1.261493437416606467e+00,-1.269425962152411991e+00,-1.271422493127231546e+00,-1.267784907180644405e+00,-1.258922300452970600e+00,-1.245307633007432413e+00,-1.227434804034688520e+00,-1.205779490235285634e+00,-1.180766074503583729e+00,-1.152742206264485203e+00,-1.121961932695362929e+00,-1.088578107546844587e+00,-1.052644896397361807e+00,-1.014130994422085541e+00,-9.729429339629748208e-01,-9.289558834536115750e-01,-8.820478412393045753e-01,-8.321330279274689046e-01,-7.791914421052071882e-01,-7.232930604287396426e-01,-6.646161818250717612e-01,-6.034596772866139824e-01,-5.402487025050267677e-01,-4.755331890887906088e-01,-4.099783141830616318e-01,-3.443462075905376341e-01,-2.794686287809175496e-01,-2.162113529299207471e-01,-1.554322867639922889e-01,-9.793648836238971755e-02,-4.443199509211730874e-02,4.509365065146687945e-03,4.848212130671249176e-02,8.726486251671655703e-02,1.208234374452136078e-01,1.492995088966722339e-01,1.729864532106395458e-01,1.922963963428379053e-01,2.077230260529597250e-01,2.198045279184648593e-01,2.290899358582720868e-01,2.361109338089085741e-01,2.413600818606359832e-01,2.452756642366488438e-01,2.482328078692125906e-01,2.505401505383169081e-01,2.524411173837009525e-01,2.541187360219229752e-01,2.557028520205490429e-01,2.572786399926442757e-01,2.588954682342485270e-01,2.605754037083329866e-01,2.623208697498545239e-01,2.641211759090759115e-01,2.659578180454236218e-01,2.678085736028644193e-01,2.696504912816942712e-01,2.714619176941610590e-01,2.732237270056554479e-01,2.749199261341023770e-01,2.765378079859475702e-01,2.780678229518543376e-01,2.795033215484025169e-01,2.808402823078971489e-01,2.820770908540782274e-01,2.832143989811184426e-01,2.842550704721517607e-01,2.852041978577843362e-01,2.860691418502323002e-01,2.868595205844426399e-01,2.875870818165923160e-01,2.882654212705785812e-01,2.889095397789038233e-01,2.895352536305206281e-01,2.901584943790058158e-01,2.907945512811078714e-01,2.914573105530288144e-01,2.921585389699223323e-01,2.929072611709748197e-01,2.937092887274302400e-01,2.945669587036924275e-01,2.954791249485453908e-01,2.964414211494734164e-01,2.974467837474061294e-01,2.984861914556299900e-01,2.995495544905927843e-01,3.006266696741428102e-01,3.017081512045506342e-01,3.027862531712204874e-01,3.038555158460028993e-01,3.049131908270850677e-01,3.059594221421513272e-01,3.069971692768284632e-01,3.080318612583783922e-01,3.090707904509132908e-01,3.101222963476257810e-01,3.111948310279116225e-01,3.122960144710196784e-01,3.134317828206554246e-01,3.146057225664223300e-01,3.158186685819475148e-01,3.170686122717059074e-01,3.183509237387177060e-01,3.196588562635700459e-01,3.209842728713431792e-01,3.223185103269038954e-01,3.236532867535073521e-01,3.249815695584368225e-01,3.262983342937304521e-01,3.276011494863285689e-01,3.288905246272272320e-01,3.301699735916680534e-01,3.314457771768528072e-01,3.327264643563588309e-01,3.340220615119300906e-01,3.353431845393779476e-01,3.367000729948439464e-01,3.381016817330178559e-01,3.395549338811553186e-01,3.410641976594406821e-01,3.426310105004119477e-01,3.442540616757142624e-01,3.459294469871016520e-01,3.476511962015162993e-01,3.494120321002295859e-01,3.512042693417587458e-01,3.530207393820248840e-01,3.548556397824434439e-01,3.567052312221196675e-01,3.585683289997496082e-01,3.604465568518476215e-01,3.623443499834240189e-01,3.642687116777835188e-01,3.662287441788097397e-01,3.682349887169734104e-01,3.702986216338852166e-01,3.724305668917080037e-01,3.746406037612622919e-01,3.769365662325146471e-01,3.793237280481308038e-01,3.818044394753364323e-01,3.843780478319602234e-01,3.870411002479384743e-01,3.897877878555376374e-01,3.926105601312825377e-01,3.955008355309211909e-01,3.984497485072769907e-01,4.014488822096100029e-01,4.044909373659108520e-01,4.075702841962521306e-01,4.106833399513291072e-01,4.138287234400661596e-01,4.170071593085198369e-01,4.202211221430285359e-01,4.234742294139451912e-01,4.267704244263016977e-01,4.301130281484235041e-01,4.335037631533644187e-01,4.369418582677956908e-01,4.404233319353343945e-01,4.439405274235423970e-01,4.474819394693501096e-01,4.510323458868439883e-01,4.545732373225751521e-01,4.580835042898124820e-01,4.615403016907819178e-01,4.649199994785750412e-01,4.681991372172439325e-01,4.713553008071207917e-01,4.743678407273436148e-01,4.772183727290441602e-01,4.798910286369758027e-01,4.823724433947905177e-01,4.846514911026642003e-01,4.867188251405884514e-01,4.885663064388488519e-01,4.901863976465508088e-01,4.915715772159726105e-01,4.927138184873068316e-01,4.936041891792390945e-01,4.942326325346595439e-01,4.945879732240637816e-01,4.946581592383369474e-01,4.944307202448759986e-01,4.938933942900642915e-01,4.930348515312002466e-01,4.918454343197994350e-01,4.903178377943716582e-01,4.884476665469320578e-01,4.862338132394730117e-01,4.836786100853260328e-01,4.807877061755282400e-01,4.775696352103480091e-01,4.750120045749108288e-01,4.711847199084631677e-01,4.670659134370233057e-01,4.626659524185718353e-01,4.579929173599808223e-01,4.530518123615574488e-01,4.478440601619306793e-01,4.423673211903590419e-01,4.366156455101544709e-01,4.305799392589713670e-01,4.242487113652330111e-01,4.176090559967799432e-01,4.106478092335548169e-01,4.033527952773114378e-01,3.957140608987692598e-01,3.877249959694750170e-01,3.793832554535354618e-01,3.706914294385437736e-01,3.616574383834947892e-01,3.522946480791822044e-01,3.426217084374344468e-01,3.326621361013754052e-01,3.224436813078748187e-01,3.119975371351921267e-01,3.013574638754949464e-01,2.905589097332342829e-01,2.796382017381507934e-01,2.686318566207723801e-01,2.575760373775614065e-01,2.465061696138588498e-01,2.354567232150422129e-01,2.244611444217057550e-01,2.135518943627034150e-01,2.027605313569035561e-01,1.921177765889850730e-01,1.816535169793053739e-01,1.713967161840320719e-01,1.613752253841705397e-01,1.516154991591505408e-01,1.421422209755989208e-01,1.329778439672379964e-01,1.241420713110266139e-01,1.158040254355323789e-01,1.076615462824785374e-01,9.988514547125573739e-02,9.247966642125411696e-02,8.544549812371346476e-02,7.877867150584930145e-02,7.247118903855885585e-02,6.651159820934365863e-02,6.088578770580754806e-02,5.557795589796950958e-02,5.057168131115453991e-02,4.585100690822393327e-02,4.140143522293397715e-02,3.721073727503449585e-02,3.326950808018513950e-02,2.957143099202889230e-02,2.611322909774161857e-02,2.289430526866987822e-02,1.991611210800635010e-02,1.718132360755983412e-02,1.469289099335927863e-02,1.245307196062016286e-02,1.046252704001832991e-02,8.719568522996368892e-03,7.219625169329185570e-03,5.954963748985861796e-03,4.914693675952671800e-03,4.085062950406385084e-03,3.450017330291611437e-03,2.991953765481224735e-03,2.692586436517599262e-03,2.533857694073356117e-03,2.498832231531318733e-03,2.572499675060208480e-03,2.742404672374148047e-03,2.999040712732331613e-03,3.335971750654301814e-03,3.749671976752679600e-03,4.239098235285310504e-03,4.805030169533618112e-03,5.449234451004745551e-03,6.173534310320307264e-03,6.978887127147628822e-03,7.864579135084849570e-03,8.827629424705843442e-03,9.862460415878926759e-03,1.096085392335741093e-02,1.211218604790138646e-02,1.330391414112913617e-02,1.452226271427606297e-02,1.575303035452416470e-02,1.698243819673956115e-02,1.819795768587364332e-02,1.938906506694839174e-02,2.054786296555301608e-02,2.166950345402685052e-02,2.275235877534799792e-02,2.379791288645763739e-02,2.481037767641288208e-02,2.579606783759171712e-02,2.676259871463080448e-02,2.771799322606055202e-02,2.866978371836870210e-02,2.962417893405841496e-02,3.058535233174820844e-02,3.155490356945545027e-02,3.253154721167837021e-02,3.351108234455622836e-02,3.448667601695905999e-02,3.544945147892428899e-02,3.638932714234290045e-02,3.729601226814472509e-02,3.816003248074649468e-02,3.897365400555324183e-02,3.973160993795409046e-02,4.043157798252152574e-02,4.107438639415290915e-02,4.166392964969332230e-02,4.220677797815838850e-02,4.271149588048841345e-02,4.318774283521891605e-02,4.364527018340663006e-02,4.409293132005229904e-02,4.453780940418931161e-02,4.498454782670345542e-02,4.543493892352932356e-02,4.588780034595873331e-02,4.633914917695212271e-02,4.678265773584124043e-02,4.721034536442985513e-02,4.761343932626762449e-02,4.836290061170948895e-02,4.868856690323566244e-02,4.880642636795089195e-02,4.904460862978875929e-02,4.923371161121673639e-02,4.936322993518012930e-02,4.914398508372493091e-02,4.947854189158694405e-02,4.931933772240761071e-02,4.901155994028360413e-02,4.888988734095003896e-02,4.823211338004550208e-02,4.644990960053027584e-02,4.552258947672006145e-02,4.477890145926496923e-02,3.778286044463191606e-02,3.543694815413075960e-02,3.229823834594229559e-02,2.661856746339473848e-02,3.641369141572818602e-02,2.275962858259757138e-02,2.288107231772314870e-02,4.326114140831524568e-02,4.350056024346272976e-02,4.121111358209955666e-02,0.000000000000000000e+00,0.000000000000000000e+00,0.000000000000000000e+00,0.000000000000000000e+00,0.000000000000000000e+00,0.000000000000000000e+00,0.000000000000000000e+00,0.000000000000000000e+00,0.000000000000000000e+00,0.000000000000000000e+00,0.000000000000000000e+00,0.000000000000000000e+00,0.000000000000000000e+00,0.000000000000000000e+00,0.000000000000000000e+00,0.000000000000000000e+00,0.000000000000000000e+00,0.000000000000000000e+00,0.000000000000000000e+00,0.000000000000000000e+00,0.000000000000000000e+00,0.000000000000000000e+00,0.000000000000000000e+00,0.000000000000000000e+00,0.000000000000000000e+00,0.000000000000000000e+00,0.000000000000000000e+00,0.000000000000000000e+00,0.000000000000000000e+00,0.000000000000000000e+00,0.000000000000000000e+00,0.000000000000000000e+00,0.000000000000000000e+00,0.000000000000000000e+00,0.000000000000000000e+00,0.000000000000000000e+00,0.000000000000000000e+00,0.000000000000000000e+00,0.000000000000000000e+00,0.000000000000000000e+00,0.000000000000000000e+00,0.000000000000000000e+00,0.000000000000000000e+00,0.000000000000000000e+00,0.000000000000000000e+00,0.000000000000000000e+00,0.000000000000000000e+00,0.000000000000000000e+00,0.000000000000000000e+00,0.000000000000000000e+00,0.000000000000000000e+00,0.000000000000000000e+00,0.000000000000000000e+00,0.000000000000000000e+00,0.000000000000000000e+00,0.000000000000000000e+00,0.000000000000000000e+00,0.000000000000000000e+00,0.000000000000000000e+00,0.000000000000000000e+00,0.000000000000000000e+00,0.000000000000000000e+00,0.000000000000000000e+00,0.000000000000000000e+00,0.000000000000000000e+00,0.000000000000000000e+00,0.000000000000000000e+00,0.000000000000000000e+00,0.000000000000000000e+00,0.000000000000000000e+00,0.000000000000000000e+00,0.000000000000000000e+00,0.000000000000000000e+00,0.000000000000000000e+00,0.000000000000000000e+00,0.000000000000000000e+00,0.000000000000000000e+00,0.000000000000000000e+00,0.000000000000000000e+00,0.000000000000000000e+00,0.000000000000000000e+00,0.000000000000000000e+00,0.000000000000000000e+00,0.000000000000000000e+00,0.000000000000000000e+00,0.000000000000000000e+00,0.000000000000000000e+00,0.000000000000000000e+00,0.000000000000000000e+00,0.000000000000000000e+00,0.000000000000000000e+00,0.000000000000000000e+00,0.000000000000000000e+00,0.000000000000000000e+00,0.000000000000000000e+00,0.000000000000000000e+00,0.000000000000000000e+00,0.000000000000000000e+00
6.200000000000000000e+01,0.000000000000000000e+00,1.000000000000000000e+00,-1.038784351038289644e-03,-1.141229472128778679e-03,-1.291447312134212828e-03,-1.483171796673105449e-03,-1.707409592414745308e-03,-1.953323595427866599e-03,-2.209240721201116957e-03,-2.463680919898198190e-03,-2.706318160090521226e-03,-2.928803955385206065e-03,-3.125398841301712041e-03,-3.293350338994012125e-03,-3.432958089868958038e-03,-3.547316422255709142e-03,-3.641792500094048670e-03,-3.723324765373149919e-03,-3.799609516378445878e-03,-3.878231648390899344e-03,-3.965807025809311298e-03,-4.067215973690204746e-03,-4.185012010738817061e-03,-4.319095559433310666e-03,-4.466733308703794807e-03,-4.622948524886449397e-03,-4.781215235833255819e-03,-4.934320525657485274e-03,-5.075255553366167863e-03,-5.198034451632538473e-03,-5.298373957446295308e-03,-5.374177129486215967e-03,-5.425768243681637452e-03,-5.455849216846843028e-03,-5.469195524643931210e-03,-5.472152778846782299e-03,-5.472007697188096403e-03,-5.476301247646269202e-03,-5.492148174303942455e-03,-5.525621888981446274e-03,-5.581252003605052976e-03,-5.661669398605887263e-03,-5.767418152521893403e-03,-5.896934739984821192e-03,-6.046680092697776128e-03,-6.211402714739758246e-03,-6.384516396861480113e-03,-6.558588983116477727e-03,-6.725933564350667672e-03,-6.879261987107833203e-03,-7.012327927314548556e-03,-7.120478959974109283e-03,-7.201058796629311760e-03,-7.253635578271686209e-03,-7.280050852562269630e-03,-7.284276969687249886e-03,-7.272067841608012562e-03,-7.250420156877215687e-03,-7.226911852831721834e-03,-7.209004134292213394e-03,-7.203371451834665248e-03,-7.215300830285147071e-03,-7.248203696706497119e-03,-7.303289228262972894e-03,-7.379435776215375990e-03,-7.473271812287008570e-03,-7.579459380586918947e-03,-7.691164868317893616e-03,-7.800688526586427307e-03,-7.900205402820579398e-03,-7.982554635116304378e-03,-8.041993613397552254e-03,-8.074817301199799235e-03,-8.079759309648623308e-03,-8.058136597432832837e-03,-8.013740657937293288e-03,-7.952498526349674468e-03,-7.881935837678833920e-03,-7.810480755508347576e-03,-7.746657187826559536e-03,-7.698232128690052703e-03,-7.671403595679964806e-03,-7.670140155452797974e-03,-7.695789264013484440e-03,-7.747023636563691966e-03,-7.820111141265836951e-03,-7.909438824286355724e-03,-8.008206298601796419e-03,-8.109192058101510892e-03,-8.205491302800994868e-03,-8.291149955666855809e-03,-8.361661596059742629e-03,-8.414315646629845491e-03,-8.448376959884209073e-03,-8.465062409533048726e-03,-8.467285283063430076e-03,-8.459169725517483654e-03,-8.445381286772246643e-03,-8.430350588931498704e-03,-8.417473145324597811e-03,-8.408363475881190652e-03,-8.402249622878754307e-03,-8.395619652543134109e-03,-8.382233096458661589e-03,-8.353537463268927848e-03,-8.299412405568543094e-03,-8.209092765369567501e-03,-8.072136330564378542e-03,-7.879359768768254627e-03,-7.623704040675086807e-03,-7.300976890157680893e-03,-6.910370618276558304e-03,-6.454623810210562314e-03,-5.939726595848470597e-03,-5.374142424937887984e-03,-4.767602224102635011e-03,-4.129611895243866064e-03,-3.467883311615698252e-03,-2.786914826621340966e-03,-2.086904792864743580e-03,-1.363112849600098047e-03,-6.057157597189120717e-04,1.998516009160376816e-04,1.072115129949229332e-03,2.032395262634185008e-03,3.103316318768385013e-03,4.307090965103039550e-03,5.663735169706519273e-03,7.189381376918173652e-03,8.894826930992780906e-03,1.078443387524109613e-02,1.285548942419278973e-02,1.509811171726925180e-02,1.749573845805537514e-02,2.002616953415382872e-02,2.266304477700671616e-02,2.537755607337914207e-02,2.814017012760946027e-02,3.092217225396085706e-02,3.369688760584675646e-02,3.644048392166966688e-02,3.913232124156762470e-02,4.175486694832918760e-02,4.429321921919826544e-02,4.673429036228695516e-02,4.906570575364056774e-02,5.127449835580719095e-02,5.334574065588790909e-02,5.526130558612254995e-02,5.699893090341888457e-02,5.853171072647688628e-02,5.982811173386096137e-02,6.085259262900957755e-02,6.156683380870173888e-02,6.193145581117924514e-02,6.190797931933882808e-02,6.146071463719893213e-02,6.055831181392584694e-02,5.917488020770603208e-02,5.729083044878402475e-02,5.489375211194730264e-02,5.197960727883246118e-02,4.855430057149368039e-02,4.463540846437781540e-02,4.025369681804537303e-02,3.545409833353575790e-02,3.029595157451276874e-02,2.485238694477389168e-02,1.920878033562547701e-02,1.346024699666941403e-02,7.708242110090096459e-03,2.056468242284713657e-03,-3.393555871701735022e-03,-8.546796449068971846e-03,-1.331840188858223958e-02,-1.763644654413061563e-02,-2.144357915117567348e-02,-2.469763648404009124e-02,-2.737141157422412832e-02,-2.945182595902541556e-02,-3.093878860353600421e-02,-3.184403777882394149e-02,-3.219023593180455473e-02,-3.201050372416130996e-02,-3.134840485114913367e-02,-3.025812148384550079e-02,-2.880431694224838343e-02,-2.706115977086580304e-02,-2.511021973831382981e-02,-2.303729018233250173e-02,-2.092848095449560339e-02,-1.886607953440667951e-02,-1.692467338377039512e-02,-1.516791505346938920e-02,-1.364616979905391297e-02,-1.239513858546281884e-02,-1.143540623997568555e-02,-1.077276600761894673e-02,-1.039915259744549937e-02,-1.029405853929302866e-02,-1.042635163633218003e-02,-1.075641772212214062e-02,-1.123854323110526875e-02,-1.182344802890831527e-02,-1.246088169711957738e-02,-1.310219631233556885e-02,-1.370277704096489399e-02,-1.422415652621446779e-02,-1.463563642504604918e-02,-1.491532795046137012e-02,-1.505063853849985395e-02,-1.503829207514611847e-02,-1.488395451667863002e-02,-1.460148314444792254e-02,-1.421179135153876824e-02,-1.374135468856282211e-02,-1.322044047907106057e-02,-1.268116767551649357e-02,-1.215548772993957187e-02,-1.167315198647543573e-02,-1.125973624408811713e-02,-1.093484945086663392e-02,-1.071072067319201598e-02,-1.059136194569580865e-02,-1.057243354590201891e-02,-1.064184562647511705e-02,-1.078104566957490892e-02,-1.096686877312041605e-02,-1.117378438354077810e-02,-1.137636239334904875e-02,-1.155177767416579876e-02,-1.168216142032577932e-02,-1.175660368771699188e-02,-1.177262687043890803e-02,-1.173698611915990030e-02,-1.166570780880232805e-02,-1.158334285851864154e-02,-1.152146587772536097e-02,-1.151646918130207371e-02,-1.160669289774964551e-02,-1.182894838706341142e-02,-1.221455947077636044e-02,-1.278512960629982209e-02,-1.354829973633028990e-02,-1.449379590670871534e-02,-1.559009080774824765e-02,-1.678199744001647800e-02,-1.798946456352404008e-02,-1.910778492399718004e-02,-2.000938855701065930e-02,-2.054735927366439438e-02,-2.056075552095540035e-02,-1.988174130706224507e-02,-1.834444081459492976e-02,-1.579530402140163006e-02,-1.210462451878333880e-02,-7.178712197523961017e-03,-9.720688910743568566e-04,6.501290041138229822e-03,1.515847034993979443e-02,2.484160701572488833e-02,3.531634067220100481e-02,4.627561049833672085e-02,5.734848259568836593e-02,6.811278540207670040e-02,7.810995560491613976e-02,8.686059719158786829e-02,9.387955952710246021e-02,9.868992732466128071e-02,1.008360952564446716e-01,9.989648152050248364e-02,9.549613242511437172e-02,8.731895803774261666e-02,7.511903281244142194e-02,5.873019217201858738e-02,3.807307975268780370e-02,1.315907457059507270e-02,-1.590920186927401170e-02,-4.894147113312037611e-02,-8.566884661211041085e-02,-1.257596817325430105e-01,-1.688424595128859562e-01,-2.145343101156388932e-01,-2.624719524255224035e-01,-3.123404549710974698e-01,-3.638949927597819323e-01,-4.169718564156665308e-01,-4.714865913838429679e-01,-5.274186817361434798e-01,-5.847835740287359307e-01,-6.435941590642745291e-01,-7.038150672493850291e-01,-7.653141496916755493e-01,-8.278163459066486540e-01,-8.908659580578058845e-01,-9.538038361693225164e-01,-1.015765271792132163e+00,-1.075702058012899975e+00,-1.132428596684984301e+00,-1.184687827558624340e+00,-1.231228872392652995e+00,-1.270885715978351538e+00,-1.302646177174791031e+00,-1.325703272850911052e+00,-1.339485943682924951e+00,-1.343670928983564661e+00,-1.338180203467943308e+00,-1.323168443462978905e+00,-1.299004124032064444e+00,-1.266247357464615364e+00,-1.225627013719057690e+00,-1.178018365792559807e+00,-1.124420781103344424e+00,-1.065933443953679394e+00,-1.003726393911012371e+00,-9.390050409649721708e-01,-8.729687525148386307e-01,-8.067667960540552130e-01,-7.414563279465554713e-01,-6.779668074160545288e-01,-6.170738140874226785e-01,-5.593835400621728349e-01,-5.053277208074959947e-01,-4.551678013033148562e-01,-4.090068228959365948e-01,-3.668075536615321153e-01,-3.284152619646427129e-01,-2.935831699864897004e-01,-2.619985095295629396e-01,-2.333076077272770166e-01,-2.071392299834386441e-01,-1.831258288304618842e-01,-1.609222091497088392e-01,-1.402208805481022780e-01,-1.207634058168627067e-01,-1.023472994814263320e-01,-8.482832821892218045e-02,-6.811838837906027122e-02,-5.217946018655197221e-02,-3.701443018914822580e-02,-2.265582779247565792e-02,-9.153696971529259180e-03,3.436161389805716428e-03,1.506251912115298165e-02,2.568688040023028862e-02,3.528909501930452275e-02,4.387040121336677895e-02,5.145416918351005536e-02,5.808479597747875228e-02,6.382522531006808164e-02,6.875348165708365655e-02,7.295852910540079339e-02,7.653576190432900828e-02,7.958248420562517855e-02,8.219376208583500931e-02,8.445896982758652194e-02,8.645921604079183365e-02,8.826568244851763778e-02,8.993879112727064251e-02,9.152806311799158157e-02,9.307253223816987220e-02,9.460158756052709783e-02,9.613611427543083954e-02,9.768980603105194283e-02,9.927053918364585339e-02,1.008817043104325711e-01,1.025233828317103774e-01,1.041932808833115204e-01,1.058874016199023715e-01,1.076005007590312840e-01,1.093263894679086384e-01,1.110581429272280707e-01,1.127882697942281937e-01,1.145088939726620209e-01,1.162119888958211278e-01,1.178896893640983823e-01,1.195346832751289917e-01,1.211406547021632585e-01,1.227027243267916762e-01,1.242178252688200257e-01,1.256849660093375953e-01,1.271053623419358403e-01,1.284824427321613893e-01,1.298217272807820066e-01,1.311305683961469515e-01,1.324177456677439468e-01,1.336929251932650331e-01,1.349660142428677767e-01,1.362464615536221613e-01,1.375425673770400703e-01,1.388608706246693691e-01,1.402056727441669537e-01,1.415787502956321608e-01,1.429793089115538596e-01,1.444042197683565176e-01,1.458485290258762779e-01,1.473061594599061608e-01,1.487706810538009794e-01,1.502360368009729163e-01,1.516971573648719651e-01,1.531504479728957036e-01,1.545941446669868435e-01,1.560285163963836541e-01,1.574558814038903021e-01,1.588804289642626044e-01,1.603078540505589733e-01,1.617448177807364607e-01,1.631982816017839288e-01,1.646748142188069197e-01,1.661799715069393890e-01,1.677177959598068480e-01,1.692904415927706796e-01,1.708979435073851860e-01,1.725381831904470864e-01,1.742071005109953052e-01,1.758991640646803412e-01,1.776080495958453354e-01,1.793274122859497000e-01,1.810516162008317942e-01,1.827763351985718099e-01,1.844990108446517285e-01,1.862191613173477811e-01,1.879384977656563538e-01,1.896607977019839908e-01,1.913915240765450554e-01,1.931372347318471572e-01,1.949048747852929475e-01,1.967010581775777978e-01,1.985314221316706873e-01,2.004001040960154134e-01,2.023093623725747137e-01,2.042593500998025613e-01,2.062480545377533558e-01,2.082714096365838319e-01,2.103235800114928999e-01,2.123974088541812355e-01,2.144850085210968371e-01,2.165784507112158697e-01,2.186705044124420405e-01,2.207553640140658135e-01,2.228292888110736114e-01,2.248910687288063204e-01,2.269422642546533586e-01,2.289872046506096770e-01,2.310327332883699847e-01,2.330876865834307365e-01,2.351621271346746034e-01,2.372664181519568982e-01,2.394102632610589920e-01,2.416018113068729156e-01,2.438468892645932751e-01,2.461484191809070465e-01,2.485060757060931769e-01,2.509162315614888450e-01,2.533722248283554190e-01,2.558649458724726600e-01,2.583836690496812971e-01,2.609169919309500818e-01,2.634537463316848904e-01,2.659837913717335578e-01,2.684986372347353822e-01,2.709918724877539709e-01,2.734593952804942329e-01,2.758994691862087789e-01,2.783126172695751244e-01,2.807013441313753188e-01,2.830696714460589902e-01,2.854225075031259218e-01,2.877649223877879470e-01,2.901014207086640706e-01,2.924352766150540295e-01,2.947679599706142795e-01,2.970986823913713826e-01,2.994241229907129154e-01,3.017384095931994192e-01,3.040333897786302586e-01,3.062991407296440927e-01,3.085246033427312962e-01,3.106982286851677211e-01,3.128085755490290776e-01,3.148448512970530300e-01,3.167974061701023802e-01,3.186581632632569105e-01,3.204209271169032869e-01,3.220815085494864172e-01,3.236376380704908406e-01,3.250886889662703561e-01,3.264352592259318064e-01,3.276786506547280653e-01,3.288202687646638034e-01,3.298609927772996331e-01,3.308006028781846908e-01,3.316373449581531685e-01,3.323676689408587848e-01,3.329861478906986361e-01,3.334855897294199956e-01,3.338573535061082342e-01,3.340918512700798981e-01,3.341791876165557396e-01,3.341098875433429205e-01,3.338756611312154732e-01,3.334701264725498104e-01,3.328893818090538637e-01,3.321323262565081813e-01,3.312006849068557246e-01,3.300987541501246847e-01,3.288329147021240018e-01,3.274109777383454878e-01,3.258414380107772512e-01,3.241327009225261069e-01,3.222923432470042870e-01,3.203264623060856908e-01,3.182391618873477435e-01,3.160322270272862277e-01,3.137050407139563846e-01,3.112547641163135870e-01,3.086767523897935295e-01,3.059651439476097634e-01,3.031135445690770758e-01,3.001157235004630608e-01,2.969662570786609224e-01,2.936610869186726536e-01,2.901979659924511790e-01,2.865767369706650469e-01,2.827993695974411192e-01,2.788697216556508818e-01,2.747930626517841590e-01,2.705754588444974629e-01,2.662231347784548841e-01,2.617419000138128671e-01,2.571366824766714299e-01,2.524111832659644006e-01,2.475676800751507312e-01,2.426070283438569730e-01,2.375288995644430912e-01,2.323322448045831989e-01,2.270159135513313831e-01,2.215793346870689462e-01,2.160231769538178415e-01,2.103499312914376973e-01,2.045643892589196211e-01,1.986740106566320940e-01,1.926891580648538438e-01,1.866231474489493669e-01,1.804920646694157249e-01,1.743143369160913281e-01,1.681101016216585697e-01,1.619004538042447539e-01,1.557066556186576245e-01,1.495493659413325294e-01,1.434479259275323604e-01,1.374197341335092470e-01,1.314797463956953738e-01,1.256401324923639151e-01,1.199101211866048233e-01,1.142960680170058280e-01,1.088017709104592834e-01,1.034290162885513897e-01,9.817827303630638491e-02,9.304942036149776996e-02,8.804243038813115707e-02,8.315798015078677830e-02,7.839797930230771317e-02,7.376597338512899671e-02,6.926736301576519317e-02,6.490938199361714900e-02,6.070079295904043382e-02,5.665130382594017744e-02,5.277078398330214970e-02,4.906840734996567588e-02,4.555183164753855152e-02,4.222648129513838222e-02,3.909498311005392412e-02,3.615681398106396910e-02,3.340823123286613267e-02,3.084252519802810344e-02,2.845055253292436831e-02,2.622143563046545542e-02,2.414329745850598424e-02,2.220394258823361541e-02,2.039146591289764388e-02,1.869481316894403000e-02,1.710428773581995632e-02,1.561193446084541137e-02,1.421171078823822882e-02,1.289940462736696367e-02,1.167234032996815850e-02,1.052896921041522431e-02,9.468432907632299764e-03,8.490132034970747713e-03,7.593287467501736755e-03,6.776494877666216707e-03,6.037324613694738419e-03,5.372045971973552630e-03,4.775529262173183048e-03,4.241329060436693256e-03,3.761922780715964108e-03,3.329081471848860125e-03,2.934350078779668185e-03,2.569590033926945523e-03,2.227517772725061494e-03,1.902183268187261243e-03,1.589346934131338198e-03,1.286705368017920792e-03,9.939098233346177827e-04,7.123544743542549896e-04,4.447777556892519384e-04,1.947653557619404517e-04,-3.377227807682718429e-05,-2.371229158839813515e-04,-4.122860611258896582e-04,-5.574378381406856894e-04,-6.722833333052199859e-04,-7.582439419007756072e-04,-8.184622219452123695e-04,-8.576394024228890583e-04,-8.817339690988314519e-04,-8.975470510235640130e-04,-9.122165629427972855e-04,-9.326389150960935842e-04,-9.648347847346535862e-04,-1.013290198517253007e-03,-1.080346062230408584e-03,-1.165755718345436393e-03,-1.266534352210950225e-03,-1.377169024698475823e-03,-1.490179624484992476e-03,-1.596948487210707703e-03,-1.688681087141695805e-03,-1.692040962418462540e-03,-1.728203213499642432e-03,-1.732237806991779360e-03,-1.703956874440177346e-03,-1.842422026401945110e-03,-1.726638045548049231e-03,-1.682709112553692392e-03,-1.627598479319433602e-03,-1.502137739729770887e-03,-1.042088320816650848e-03,-6.896218626988247745e-04,-4.957986245096478514e-05,1.462888353067100917e-04,3.633184043822391810e-04,5.883782460028002398e-04,3.071787099849628217e-04,-9.425991422737394669e-04,-1.080034692233260629e-03,-1.298939107052012043e-03,-1.297764773680158430e-03,-2.610344541971384991e-03,-2.193034229155144468e-03,-2.357593423645534727e-03,-7.825579818214434616e-03,-7.987008434712073932e-03,-6.097725558017812533e-03,-6.387465007501013856e-03,0.000000000000000000e+00,0.000000000000000000e+00,0.000000000000000000e+00,0.000000000000000000e+00,0.000000000000000000e+00,0.000000000000000000e+00,0.000000000000000000e+00,0.000000000000000000e+00,0.000000000000000000e+00,0.000000000000000000e+00,0.000000000000000000e+00,0.000000000000000000e+00,0.000000000000000000e+00,0.000000000000000000e+00,0.000000000000000000e+00,0.000000000000000000e+00,0.000000000000000000e+00,0.000000000000000000e+00,0.000000000000000000e+00,0.000000000000000000e+00,0.000000000000000000e+00,0.000000000000000000e+00,0.000000000000000000e+00,0.000000000000000000e+00,0.000000000000000000e+00,0.000000000000000000e+00,0.000000000000000000e+00,0.000000000000000000e+00,0.000000000000000000e+00,0.000000000000000000e+00,0.000000000000000000e+00,0.000000000000000000e+00,0.000000000000000000e+00,0.000000000000000000e+00,0.000000000000000000e+00,0.000000000000000000e+00,0.000000000000000000e+00,0.000000000000000000e+00,0.000000000000000000e+00,0.000000000000000000e+00,0.000000000000000000e+00,0.000000000000000000e+00,0.000000000000000000e+00,0.000000000000000000e+00,0.000000000000000000e+00,0.000000000000000000e+00,0.000000000000000000e+00,0.000000000000000000e+00,0.000000000000000000e+00,0.000000000000000000e+00,0.000000000000000000e+00,0.000000000000000000e+00,0.000000000000000000e+00,0.000000000000000000e+00,0.000000000000000000e+00,0.000000000000000000e+00,0.000000000000000000e+00,0.000000000000000000e+00,0.000000000000000000e+00,0.000000000000000000e+00,0.000000000000000000e+00,0.000000000000000000e+00,0.000000000000000000e+00,0.000000000000000000e+00,0.000000000000000000e+00,0.000000000000000000e+00,0.000000000000000000e+00,0.000000000000000000e+00,0.000000000000000000e+00,0.000000000000000000e+00,0.000000000000000000e+00,0.000000000000000000e+00,0.000000000000000000e+00,0.000000000000000000e+00,0.000000000000000000e+00,0.000000000000000000e+00,0.000000000000000000e+00,0.000000000000000000e+00,0.000000000000000000e+00,0.000000000000000000e+00,0.000000000000000000e+00,0.000000000000000000e+00,0.000000000000000000e+00,0.000000000000000000e+00,0.000000000000000000e+00,0.000000000000000000e+00,0.000000000000000000e+00,0.000000000000000000e+00,0.000000000000000000e+00,0.000000000000000000e+00,0.000000000000000000e+00,0.000000000000000000e+00,0.000000000000000000e+00,0.000000000000000000e+00,0.000000000000000000e+00,0.000000000000000000e+00
7.000000000000000000e+01,1.000000000000000000e+00,1.000000000000000000e+00,7.606795511847286306e-03,7.166986559094838324e-03,6.724913867304351499e-03,6.279479167194955934e-03,5.829971191077587545e-03,5.376156094668002594e-03,4.918370434777605445e-03,4.457605147320893232e-03,3.995548768300487275e-03,3.534537645965123761e-03,3.077386018121839630e-03,2.627117347205356907e-03,2.186651116511861750e-03,1.758508872252718394e-03,1.344601549414113986e-03,9.461401040758764345e-04,5.636611647993570182e-04,1.971133562815021931e-04,-1.540441088811453016e-04,-4.907317688286294511e-04,-8.140950008780264155e-04,-1.125279095044690080e-03,-1.425151961409297594e-03,-1.714035024109937392e-03,-1.991526130698472417e-03,-2.256486713360941754e-03,-2.507208021577295425e-03,-2.741698527641421752e-03,-2.957992381512169946e-03,-3.154377163103669768e-03,-3.329485623909198260e-03,-3.482291945959677549e-03,-3.612131144230998868e-03,-3.718842618632566595e-03,-3.803043582623785029e-03,-3.866446016421402811e-03,-3.912091385471321014e-03,-3.944398340988708625e-03,-3.968989906988198112e-03,-3.992351421633463272e-03,-4.021410661114090991e-03,-4.063091155338997319e-03,-4.123811125473322500e-03,-4.208892821864902191e-03,-4.321944440819098544e-03,-4.464371248571650207e-03,-4.635164664502567332e-03,-4.831031912556034598e-03,-5.046836055834729926e-03,-5.276245685164460478e-03,-5.512452605868840491e-03,-5.748832454762343828e-03,-5.979496859703464610e-03,-6.199740057551470993e-03,-6.406357928221939960e-03,-6.597776342383636708e-03,-6.773963305383321094e-03,-6.936186304852660911e-03,-7.086713616449481432e-03,-7.228517273773223117e-03,-7.364962530992496571e-03,-7.499442809188100467e-03,-7.634980019952621565e-03,-7.773871582544616618e-03,-7.917428981201348262e-03,-8.065788449103767146e-03,-8.217801498993060685e-03,-8.371084856141696590e-03,-8.522302674566500577e-03,-8.667662630140161861e-03,-8.803514278061280729e-03,-8.926898130362109079e-03,-9.035915149060411850e-03,-9.129857523557469851e-03,-9.209137488538882144e-03,-9.275119719416052844e-03,-9.329960661967146018e-03,-9.376500407189026706e-03,-9.418182822676717317e-03,-9.458932494579744971e-03,-9.502922670382388942e-03,-9.554217114880868972e-03,-9.616312245963062541e-03,-9.691627459257784113e-03,-9.781010674520061038e-03,-9.883341798902949352e-03,-9.995307823407644301e-03,-1.011139134675761823e-02,-1.022407597486630661e-02,-1.032422958574497063e-02,-1.040159283429103500e-02,-1.044531165782975994e-02,-1.044451381958851587e-02,-1.038898532807904472e-02,-1.026999142995825565e-02,-1.008119655011092616e-02,-9.819511428461309352e-03,-9.485623051456310018e-03,-9.084018887079959095e-03,-8.622471403896278877e-03,-8.111090878117786437e-03,-7.561113873938135783e-03,-6.983590386739043157e-03,-6.388110805270484638e-03,-5.781690739332482308e-03,-5.167908251729916129e-03,-4.546370235393734117e-03,-3.912568396098507241e-03,-3.258163991712315685e-03,-2.571714426565974935e-03,-1.839801754652937863e-03,-1.048428925320067217e-03,-1.844728223329085057e-04,7.630068600608733154e-04,1.801725427837536347e-03,2.935451265705292783e-03,4.163647050135364965e-03,5.481529169893201679e-03,6.880555583595797560e-03,8.349244920956028909e-03,9.874139759163721997e-03,1.144070153267275590e-02,1.303395160126041841e-02,1.463875064678779939e-02,1.623973155013778286e-02,1.782101291624003242e-02,1.936584558317612850e-02,2.085627415311607294e-02,2.227282524623708931e-02,2.359424315442284342e-02,2.479733263708444255e-02,2.585696565657943230e-02,2.674627129944756598e-02,2.743698294775339178e-02,2.789988975816591263e-02,2.810537553680400591e-02,2.802412230535387266e-02,2.762811813354320439e-02,2.689205116937131573e-02,2.579500390847629457e-02,2.432219245438837010e-02,2.246642633979650111e-02,2.022900170801898365e-02,1.761985178697467874e-02,1.465695198855374547e-02,1.136517506367959104e-02,7.774940568964238720e-03,3.921052551017977297e-03,-1.579424976358875484e-04,-4.419729694293260749e-03,-8.817671034120530202e-03,-1.330011853304144225e-02,-1.781005306295777371e-02,-2.228535600121452423e-02,-2.665979529649623730e-02,-3.086465497889595913e-02,-3.483090736443977126e-02,-3.849182875723432956e-02,-4.178587917191313450e-02,-4.465955665034609945e-02,-4.706994109664310727e-02,-4.898675429007064153e-02,-5.039384251820032412e-02,-5.129000275075363408e-02,-5.168910455354280842e-02,-5.161950316270404876e-02,-5.112273133587557500e-02,-5.025145235442438768e-02,-4.906672942558421707e-02,-4.763477315168422599e-02,-4.602342213446976998e-02,-4.429870428674294314e-02,-4.252186781112713559e-02,-4.074717143622216126e-02,-3.902050729439738436e-02,-3.737872658128889997e-02,-3.584943974569444053e-02,-3.445107619291360584e-02,-3.319309087371177802e-02,-3.207635601055176117e-02,-3.109390099036711888e-02,-3.023218522767783661e-02,-2.947297546619792596e-02,-2.879570879668424607e-02,-2.818008685879624942e-02,-2.760862296548076064e-02,-2.706887025049997328e-02,-2.655504148111295301e-02,-2.606876283493508861e-02,-2.561882965808070026e-02,-2.521997753999066089e-02,-2.489080094592829168e-02,-2.465110412146007818e-02,-2.451914933611699238e-02,-2.450930593149804743e-02,-2.463036418716663123e-02,-2.488439167909749575e-02,-2.526580127203458676e-02,-2.576044173390959480e-02,-2.634487675342695595e-02,-2.698633648544051383e-02,-2.764389999310029253e-02,-2.827118829913599293e-02,-2.882034608420855695e-02,-2.924667170839724897e-02,-2.951309908269793628e-02,-2.959380932515976240e-02,-2.947647639384781693e-02,-2.916295772572996894e-02,-2.866852551603855243e-02,-2.801991193589599763e-02,-2.725251295617167613e-02,-2.640712347599461288e-02,-2.552659093606273605e-02,-2.465272151408479107e-02,-2.382362772809288112e-02,-2.307157670132852292e-02,-2.242138484529940592e-02,-2.188944562233577362e-02,-2.148345913822178113e-02,-2.120285176689079912e-02,-2.103978887995055017e-02,-2.098061170299260134e-02,-2.100747451209266856e-02,-2.109995201691121716e-02,-2.123643887788021281e-02,-2.139523965960441268e-02,-2.155532908919613813e-02,-2.169685473196712386e-02,-2.180152627292276241e-02,-2.185303966230628045e-02,-2.183762257421056896e-02,-2.174470634583446776e-02,-2.156767791549265428e-02,-2.130464864138850722e-02,-2.095915624319249701e-02,-2.054069238368937816e-02,-2.006496769588357251e-02,-1.955388470675671966e-02,-1.903523973557999863e-02,-1.854219485442725260e-02,-1.811255988079037843e-02,-1.778792745578196624e-02,-1.761270936261908476e-02,-1.763308079635989012e-02,-1.789575165772928217e-02,-1.844644534421642154e-02,-1.932804378200089768e-02,-2.057850871164917592e-02,-2.222881955522894998e-02,-2.430121313031686700e-02,-2.680798659912557794e-02,-2.975112290107054594e-02,-3.312306144838435967e-02,-3.690897547677449847e-02,-4.109080639662776591e-02,-4.565303459070017833e-02,-5.058982590480560343e-02,-5.591287811778455213e-02,-6.165910826410693490e-02,-6.789738780456440470e-02,-7.473381364764221380e-02,-8.231525520405237606e-02,-9.083098243129675287e-02,-1.005121940210629283e-01,-1.116294070081799150e-01,-1.244878656029132780e-01,-1.394210770086863338e-01,-1.567820781325591217e-01,-1.769314666769112032e-01,-2.002215165516651463e-01,-2.269773059739734200e-01,-2.574778408613612180e-01,-2.919409297268891756e-01,-3.305142695036916711e-01,-3.732728608181291041e-01,-4.202208900362120469e-01,-4.712951358470526819e-01,-5.263670704585841076e-01,-5.852421829448727353e-01,-6.476566190456658489e-01,-7.132718884664568382e-01,-7.816684757923079152e-01,-8.523395755595982726e-01,-9.246867093312386432e-01,-9.980189340900478268e-01,-1.071556579257293418e+00,-1.144439580143197688e+00,-1.215740138353356148e+00,-1.284479700610975828e+00,-1.349650794591072289e+00,-1.410244569310633134e+00,-1.465284247085737013e+00,-1.513863083661727504e+00,-1.555184104382081989e+00,-1.588598728680720606e+00,-1.613641242231000250e+00,-1.630054502011788697e+00,-1.637800715542219843e+00,-1.637052651143458659e+00,-1.628165415436625185e+00,-1.611633962047568813e+00,-1.588044247715682644e+00,-1.558026133457611540e+00,-1.522214450954387344e+00,-1.481221872183007493e+00,-1.435624192891175710e+00,-1.385956315373807701e+00,-1.332715998375795019e+00,-1.276371924962821813e+00,-1.217372659610168162e+00,-1.156154099075926256e+00,-1.093144739824189582e+00,-1.028769121346617466e+00,-9.634495754836354120e-01,-8.976058146062678711e-01,-8.316520554422343059e-01,-7.659923367385328419e-01,-7.010154392308859395e-01,-6.370906916110168350e-01,-5.745653545287010555e-01,-5.137637629177757015e-01,-4.549879384531568260e-01,-3.985188300216224166e-01,-3.446169497934148396e-01,-2.935212729391108444e-01,-2.454458153810000487e-01,-2.005739691448358286e-01,-1.590512167208640582e-01,-1.209771927160807337e-01,-8.639827585144978228e-02,-5.530207652495474496e-02,-2.761518819487378609e-02,-3.205123888483768588e-03,1.811347423247271562e-02,3.656915265949687438e-02,5.242192128986306737e-02,6.595102619250794995e-02,7.744335583183024896e-02,8.718307171413018641e-02,9.544271491857854450e-02,1.024759179120986047e-01,1.085118385865518204e-01,1.137514507877139536e-01,1.183657565409749340e-01,1.224957859937351179e-01,1.262540622062705287e-01,1.297271515580571966e-01,1.329789361174111006e-01,1.360542517159873122e-01,1.389825651621905411e-01,1.417814514989861885e-01,1.444597422683515930e-01,1.470202948988071356e-01,1.494623670568648865e-01,1.517835952908975217e-01,1.539815913938576697e-01,1.560551637952540538e-01,1.580051503191007012e-01,1.598348510425495472e-01,1.615500701859695909e-01,1.631587965298466891e-01,1.646706059019277801e-01,1.660959449233753438e-01,1.674454654731941938e-01,1.687295085332623235e-01,1.699577605596679919e-01,1.711390618366347149e-01,1.722813156020078229e-01,1.733914279576165007e-01,1.744752201580271334e-01,1.755372984822021754e-01,1.765809134335508956e-01,1.776078604806101136e-01,1.786184765553583687e-01,1.796117826524164796e-01,1.805858008330388509e-01,1.815380300801837377e-01,1.824660220230795993e-01,1.833679759969039369e-01,1.842432697881122017e-01,1.850928451929333141e-01,1.859193911805299693e-01,1.867273214993606101e-01,1.875225776420857415e-01,1.883122665696519704e-01,1.891041254289180240e-01,1.899058468372809005e-01,1.907243506598639282e-01,1.915650985892617952e-01,1.924315358911306006e-01,1.933247330105379302e-01,1.942432793933381308e-01,1.951834494817327459e-01,1.961396196489476329e-01,1.971048754499049038e-01,1.980717345962273446e-01,1.990329219540289685e-01,1.999821345075817047e-01,2.009147069915386274e-01,2.018280632774296368e-01,2.027218707655378815e-01,2.035979086173830555e-01,2.044597357801749837e-01,2.053122320667513656e-01,2.061610370465255249e-01,2.070119377714951248e-01,2.078703364655012931e-01,2.087409177722861220e-01,2.096275018277828639e-01,2.105329659174392520e-01,2.114591500055618967e-01,2.124067555163121901e-01,2.133752934522667732e-01,2.143631268985004557e-01,2.153676208865686337e-01,2.163853855259401104e-01,2.174125925297661355e-01,2.184453498093657797e-01,2.194801008784049434e-01,2.205139822421540996e-01,2.215450764309778442e-01,2.225725537684501432e-01,2.235967459390982293e-01,2.246191920359483507e-01,2.256426535081155760e-01,2.266710528963715165e-01,2.277092868848301921e-01,2.287628909225615514e-01,2.298375692928817660e-01,2.309386526808623885e-01,2.320705953650252507e-01,2.332366221931906070e-01,2.344385603031611531e-01,2.356768205695132790e-01,2.369505025720236024e-01,2.382576298626919442e-01,2.395954897346079526e-01,2.409609865833502729e-01,2.423509145217341842e-01,2.437621199295964824e-01,2.451915982266497651e-01,2.466366092579036218e-01,2.480948799634490332e-01,2.495648890250994623e-01,2.510461467422929749e-01,2.525393732836317962e-01,2.540465420683463149e-01,2.555707988692572097e-01,2.571162463640662144e-01,2.586875701654290372e-01,2.602895379629409645e-01,2.619264800319082154e-01,2.636018574947910365e-01,2.653179305325992221e-01,2.670754645672365757e-01,2.688734529887867319e-01,2.707089351319099668e-01,2.725770164086379066e-01,2.744711214929210219e-01,2.763834312217851585e-01,2.783054344157486204e-01,2.802285201038402507e-01,2.821445176546046318e-01,2.840460924549682020e-01,2.859269252967853725e-01,2.877816424933191120e-01,2.896055314947761916e-01,2.913941364979039661e-01,2.931428328120741500e-01,2.948464452251976509e-01,2.964989479025543218e-01,2.980932665244190316e-01,2.996211864897709853e-01,3.010733637946071961e-01,3.024394428814518032e-01,3.037082902357441938e-01,3.048683391747980531e-01,3.059080068810149378e-01,3.068160972029220779e-01,3.075820864706089175e-01,3.081962428844000068e-01,3.086496065552203349e-01,3.089338860906128414e-01,3.090413117220572325e-01,3.089644683190054808e-01,3.086961390802067107e-01,3.082292061122974824e-01,3.075566327225895402e-01,3.066714979248907902e-01,3.055670348066129027e-01,3.042366665717909924e-01,3.026740692282578471e-01,3.008732660460286534e-01,2.988287369040268371e-01,2.965355629344555988e-01,2.939896558553725670e-01,2.911880810997147795e-01,2.881294257656712432e-01,2.848141365180936746e-01,2.812447503940093685e-01,2.774259563174444887e-01,2.733644608666663811e-01,2.690686791495203734e-01,2.645483005947717459e-01,2.598137607871044419e-01,2.548756181317600178e-01,2.497438616133924316e-01,2.444272481814497300e-01,2.389327951768311920e-01,2.332655116534644857e-01,2.274283830581812216e-01,2.214225482522562960e-01,2.152475600322318328e-01,2.089016535085771731e-01,2.023820363985219528e-01,1.956852580501609318e-01,1.888076646663779667e-01,1.817458698896156355e-01,1.744971336186871003e-01,1.670595674199151781e-01,1.594321648316676943e-01,1.516147483044145705e-01,1.436079665036469333e-01,1.354134339486597616e-01,1.270340123555751544e-01,1.184741743930804864e-01,1.097404018210474952e-01,1.008415739502015601e-01,9.178925307272398082e-02,8.259775218738729663e-02,7.328393709196158456e-02,6.386680748846539080e-02,5.436693316282915217e-02,4.480579017304282125e-02,3.520502063820695610e-02,2.558567402358755127e-02,1.596754431473107819e-02,6.368731575136100942e-03,-3.194496250261517900e-03,-1.270753900531712381e-02,-2.215703242674633630e-02,-3.153020257799353521e-02,-4.081411009886470181e-02,-4.999493917631436801e-02,-5.905746946178964951e-02,-6.798479343959504262e-02,-7.675827926254659428e-02,-8.535775335298627364e-02,-9.376185868728423300e-02,-1.019485278342646406e-01,-1.098955171069514181e-01,-1.175809815319107526e-01,-1.249840913575869655e-01,-1.320856636656589644e-01,-1.388687376788187711e-01,-1.453190193520742801e-01,-1.514251546120088943e-01,-1.571788123605460108e-01,-1.625745587111135648e-01,-1.676095125365374139e-01,-1.722828095701288975e-01,-1.765949531656314797e-01,-1.805471534367829867e-01,-1.841407340509076118e-01,-1.873766582965668837e-01,-1.902552417163763387e-01,-1.927761411148767590e-01,-1.949386571756306918e-01,-1.967422796925779038e-01,-1.981873477432450625e-01,-1.992757179869770467e-01,-2.000113583110301740e-01,-2.004007815702588957e-01,-2.004532538254343021e-01,-2.001807698106707334e-01,-1.995978386410039163e-01,-1.987211339185716852e-01,-1.975690499130736966e-01,-1.961611949049608394e-01,-1.945178466613154133e-01,-1.926593834402672567e-01,-1.906056999418544451e-01,-1.883756368185716956e-01,-1.859864754911285945e-01,-1.834535512370797095e-01,-1.807900155071585080e-01,-1.780067563292006272e-01,-1.751124880270873985e-01,-1.721140338129725500e-01,-1.690168120290216069e-01,-1.658254903517162038e-01,-1.625447098824394365e-01,-1.591797396395676911e-01,-1.557369323684385243e-01,-1.522239112316403076e-01,-1.486495047081506371e-01,-1.450235200692292781e-01,-1.413564446446806955e-01,-1.376591086517450768e-01,-1.339423202680566638e-01,-1.302165069431124311e-01,-1.264914013909456958e-01,-1.227757776356154240e-01,-1.190772291285524948e-01,-1.154020185000222687e-01,-1.117550608586671407e-01,-1.081400665401986289e-01,-1.045597920732693475e-01,-1.010163116575344688e-01,-9.751125956656470084e-02,-9.404606005423117587e-02,-9.062218345014709520e-02,-8.724142263696492428e-02,-8.390611863731860243e-02,-8.061925203831718512e-02,-7.738438386007605307e-02,-7.420549808656039248e-02,-7.108679747561855167e-02,-6.803248178863972873e-02,-6.504653142740647598e-02,-6.213248485660289450e-02,-5.929316111417613777e-02,-5.653032362587755155e-02,-5.384437758378810696e-02,-5.123422979165242336e-02,-4.869737150615135318e-02,-4.623012927425856206e-02,-4.382797512190884925e-02,-4.148583241673316907e-02,-3.919837316096819180e-02,-3.696030620740649308e-02,-3.476663384270013007e-02,-3.261285091256270474e-02,-3.049508002484312835e-02,-2.841016440697236023e-02,-2.635575382307336553e-02,-2.433040156927111092e-02,-2.233364430292132316e-02,-2.036598722630373823e-02,-1.842871737242682620e-02,-1.652354556003206645e-02,-1.465217539872864204e-02,-1.281591818336566199e-02,-1.101541366202475961e-02,-9.250482753110671891e-03,-7.520155569216530403e-03,-5.822890789855138596e-03,-4.156909960812803749e-03,-2.520512768131145422e-03,-9.122742607961997676e-04,6.688925712496519979e-04,2.223763767542922577e-03,3.752857516547828450e-03,5.256465174348389120e-03,6.734655349471133437e-03,8.187289924862397109e-03,9.614087469142705913e-03,1.101472846188279557e-02,1.238897274939618209e-02,1.373677150832175627e-02,1.505837884409197587e-02,1.635446860999672028e-02,1.762622837431369188e-02,1.887536505042795160e-02,2.010396551251751249e-02,2.131422709161121323e-02,2.250815690942273642e-02,2.368735425903299371e-02,2.485291746417404510e-02,2.600543100811664177e-02,2.714497246139348924e-02,2.827112462843525686e-02,2.938301596081099518e-02,3.047940927022111182e-02,3.155883593354235489e-02,3.261974928895813863e-02,3.366066099767709568e-02,3.468023975542261494e-02,3.567737657823829428e-02,3.665123628649931409e-02,3.760132126679659181e-02,3.852756130532988127e-02,3.943041016520577174e-02,4.031090808039598100e-02,4.117068562672483722e-02,4.201191978489705880e-02,4.283726280723094970e-02,4.364973477027914855e-02,4.445253593947369464e-02,4.524873282044199196e-02,4.604081596448195146e-02,4.683021071563382015e-02,4.761689539906314994e-02,4.839926516977536425e-02,4.917426489516985022e-02,4.993771042309934349e-02,5.068470962053640838e-02,5.141013516450510662e-02,5.210911102556119862e-02,5.277744589450412277e-02,5.341192319411899175e-02,5.401039006559861522e-02,5.457168360248633443e-02,5.509551376058809818e-02,5.558240666317441209e-02,5.603372712468100703e-02,5.645172632464023205e-02,5.683952195384488898e-02,5.720091112173771031e-02,5.753997122272782455e-02,5.786052207595011876e-02,5.816561073746688570e-02,5.845714417763951676e-02,5.873568137355102831e-02,5.900033129275095850e-02,5.924872506733731142e-02,5.947708267499850210e-02,5.968041910975714626e-02,5.985291910508783175e-02,5.998846947110243744e-02,6.008128383896976094e-02,6.012649993957901867e-02,6.012061954013383364e-02,6.006172156688334429e-02,5.994946904397830539e-02,5.978498409882758435e-02,5.957065561360209288e-02,5.930991243602991292e-02,5.900699454984754261e-02,5.866676295067674990e-02,5.829454915432781548e-02,5.789597502311688570e-02,5.747665567133035391e-02,5.704176965157820717e-02,5.659557778906596642e-02,5.614101258983761333e-02,5.567944406550447839e-02,5.521069241819372836e-02,5.473329761033783603e-02,5.424497122941809163e-02,5.374310286941495762e-02,5.322521134363591283e-02,5.268929001233397386e-02,5.213404326946028539e-02,5.155902369853104100e-02,5.096466112087121025e-02,5.035216274912442808e-02,4.972329239973762721e-02,4.908007808451726739e-02
4.600000000000000000e+01,1.000000000000000000e+00,1.000000000000000000e+00,2.900750089752853270e-02,2.842468030481271404e-02,2.785132169255422410e-02,2.728699374141949768e-02,2.673069777860257595e-02,2.618089473037969045e-02,2.563558861932064767e-02,2.509245768498544540e-02,2.454901791808313319e-02,2.400280150269022000e-02,2.345153372394959482e-02,2.289329298268317006e-02,2.232663628474825315e-02,2.175067377124978094e-02,2.116508571659275403e-02,2.057008614498118462e-02,1.996634318493880830e-02,1.935487177147303395e-02,1.873692203195692282e-02,1.811388888344445808e-02,1.748725467992870430e-02,1.685855514238436895e-02,1.622935165372638849e-02,1.560120365930968943e-02,1.497564346991006080e-02,1.435415014854033756e-02,1.373811112994187053e-02,1.312876734497182667e-02,1.252715322100776164e-02,1.193404780817216605e-02,1.134995088058306234e-02,1.077509698787763870e-02,1.020951304900423809e-02,9.653108070979989769e-03,9.105766502114335734e-03,8.567410189914408114e-03,8.038005300744045095e-03,7.517516715536037668e-03,7.005838093334499327e-03,6.502736749377993966e-03,6.007844576945768102e-03,5.520704019034541714e-03,5.040854298991003825e-03,4.567931592459044399e-03,4.101757299083482952e-03,3.642392638092900072e-03,3.190145408379742482e-03,2.745526763173568915e-03,2.309166554542592918e-03,1.881704119300080984e-03,1.463680460301494592e-03,1.055461364221265937e-03,6.572100066869686645e-04,2.689087957442447426e-04,-1.095832501172114179e-04,-4.784576603025785142e-04,-8.378883425719839753e-04,-1.187980168488695374e-03,-1.528736560955715846e-03,-1.860045783987280101e-03,-2.181688246609064102e-03,-2.493366231890654146e-03,-2.794751022750643216e-03,-3.085534397474418850e-03,-3.365464244680922094e-03,-3.634344647860660808e-03,-3.892000368388605271e-03,-4.138233504955183412e-03,-4.372807712728565659e-03,-4.595477782557654683e-03,-4.806059996243347912e-03,-5.004527250946203855e-03,-5.191116083964528866e-03,-5.366440280218835214e-03,-5.531599291199553077e-03,-5.688251500663726694e-03,-5.838618118794290657e-03,-5.985402821887539707e-03,-6.131635294547065421e-03,-6.280457377217935414e-03,-6.434873621557038285e-03,-6.597489515421946227e-03,-6.770257135832756512e-03,-6.954238357194823805e-03,-7.149383147455168341e-03,-7.354313162362982777e-03,-7.566109059185776621e-03,-7.780115714531666248e-03,-7.989783703184016525e-03,-8.186560617394774905e-03,-8.359847736704353882e-03,-8.497045453351772734e-03,-8.583713667533732911e-03,-8.603866894077185495e-03,-8.540409150141019951e-03,-8.375694134916886191e-03,-8.092183075460076744e-03,-7.673176295808456157e-03,-7.103603187153224342e-03,-6.370848507992937781e-03,-5.465576984458600344e-03,-4.382512317650815240e-03,-3.121126193271758081e-03,-1.686182937585576063e-03,-8.807731697651368491e-05,1.657081020753231517e-03,3.527650289693315573e-03,5.496904033953873940e-03,7.533756391153350988e-03,9.603802981306128195e-03,1.167071296415433425e-02,1.369796717241186616e-02,1.565088672074697179e-02,1.749886898020884887e-02,1.921773123000716441e-02,2.079202075568158462e-02,2.221708456506583246e-02,2.350063665770872612e-02,2.466354295921233467e-02,2.573956881982891048e-02,2.677389137497628371e-02,2.782027161140030250e-02,2.893693062372845043e-02,3.018136786860887641e-02,3.160452413050551801e-02,3.324477644824115619e-02,3.512228780402180950e-02,3.723426585864176436e-02,3.955168280502158185e-02,4.201791154412143348e-02,4.454953767143060572e-02,4.703937962653695348e-02,4.936158959578617472e-02,5.137865746994218358e-02,5.295010989976817184e-02,5.394255242000227379e-02,5.424043326501321732e-02,5.375662902506551238e-02,5.244179056392757332e-02,5.029141458141121734e-02,4.734982728598717550e-02,4.371061873457893904e-02,3.951343436499228645e-02,3.493728838285057453e-02,3.019066925406122329e-02,2.549877963903287442e-02,2.108849086917300927e-02,1.717205952130821528e-02,1.393115773074282866e-02,1.150300486414076138e-02,9.970209251250814267e-03,9.355417679576358281e-03,9.621194647192118921e-03,1.067486019482417545e-02,1.237743689887146024e-02,1.455550492282632440e-02,1.701467414050009466e-02,1.955347154420475006e-02,2.197656863602051591e-02,2.410638209508863053e-02,2.579225637785755032e-02,2.691676395214093187e-02,2.739907269098874887e-02,2.719567075190761768e-02,2.629891254121095173e-02,2.473387121871160194e-02,2.255393559499750677e-02,1.983556002550434030e-02,1.667257740647896253e-02,1.317045286480366187e-02,9.440749158434486032e-03,5.595930615475491580e-03,1.744525593304616182e-03,-2.013336846934894297e-03,-5.589888272498690601e-03,-8.912892170403708889e-03,-1.192766046394385174e-02,-1.459767178748606030e-02,-1.690384967645507455e-02,-1.884286061271786550e-02,-2.042490378084158009e-02,-2.167136372653724607e-02,-2.261250764556604204e-02,-2.328525411079937837e-02,-2.373096872593325607e-02,-2.399324865587290634e-02,-2.411571168802132889e-02,-2.413987346900790809e-02,-2.410325697008490822e-02,-2.403790995957435367e-02,-2.396948739844928164e-02,-2.391698499205792763e-02,-2.389310775893347533e-02,-2.390515059405111734e-02,-2.395618779804220902e-02,-2.404633773978336053e-02,-2.417389172007952669e-02,-2.433617092097355855e-02,-2.453007951879053114e-02,-2.475240235403375691e-02,-2.499992152064935830e-02,-2.526942029394849826e-02,-2.555763159952388966e-02,-2.586117498133894826e-02,-2.617650988796232578e-02,-2.649991363243289072e-02,-2.682747223978703549e-02,-2.715506494212449259e-02,-2.747833536938088309e-02,-2.779266059322394247e-02,-2.809313467518439675e-02,-2.837457497802525069e-02,-2.863155216185068325e-02,-2.885844909708529943e-02,-2.904956214697424974e-02,-2.919925667725945667e-02,-2.930217966594064402e-02,-2.935352977915363024e-02,-2.934938595204832773e-02,-2.928708345464777624e-02,-2.916560846373932384e-02,-2.898597502375769436e-02,-2.875154515845876335e-02,-2.846824685232351992e-02,-2.814464813777788760e-02,-2.779186568327668763e-02,-2.742331506186378512e-02,-2.705432997493346231e-02,-2.670167398639262599e-02,-2.638295146943741079e-02,-2.611591684516223824e-02,-2.591768009223978028e-02,-2.580379654372019771e-02,-2.578721251847520754e-02,-2.587703169980118054e-02,-2.607708300167599705e-02,-2.638430834273574124e-02,-2.678703743914964686e-02,-2.726326867587806554e-02,-2.777912982977624040e-02,-2.828774152660112548e-02,-2.872872852023206774e-02,-2.902861346476170654e-02,-2.910230508597438578e-02,-2.885586446060420945e-02,-2.819068186379927385e-02,-2.700911759350807864e-02,-2.522156455899795743e-02,-2.275477741652969649e-02,-1.956117119330683107e-02,-1.562862653013594172e-02,-1.099018168434609359e-02,-5.732864423377409362e-03,-4.796365961949901731e-06,5.980416119997176809e-03,1.194303788919741025e-02,1.754124077055782202e-02,2.238045094736897112e-02,2.602809861815041231e-02,2.803314629347946479e-02,2.794903731537571809e-02,2.535800500070534841e-02,1.989408510343828457e-02,1.126195378727613480e-02,-7.509634264810228057e-04,-1.627098127798303970e-02,-3.534425574029625983e-02,-5.795244728490258485e-02,-8.403654240309246792e-02,-1.135258255511761571e-01,-1.463675358043803332e-01,-1.825521985586606166e-01,-2.221305533762643336e-01,-2.652200229685163779e-01,-3.120005240085216291e-01,-3.627001671442279251e-01,-4.175715139501579021e-01,-4.768598233191483904e-01,-5.407665027368235844e-01,-6.094126362925912366e-01,-6.828072777754061740e-01,-7.608226391504413488e-01,-8.431751675521984568e-01,-9.294104529736803011e-01,-1.018891572325788530e+00,-1.110793140230005083e+00,-1.204105016938596950e+00,-1.297649282135701521e+00,-1.390111888195704415e+00,-1.480087599273806287e+00,-1.566134767163402497e+00,-1.646835807975399080e+00,-1.720859659914117268e+00,-1.787023115514651650e+00,-1.844347884135653315e+00,-1.892109428456363762e+00,-1.929872670510728971e+00,-1.957509663317701820e+00,-1.975195915804478286e+00,-1.983384543892759755e+00,-1.982759595879377112e+00,-1.974171739422727612e+00,-1.958561915164146905e+00,-1.936881488953945851e+00,-1.910019166285532810e+00,-1.878743788876151122e+00,-1.843668212105091131e+00,-1.805234561904838664e+00,-1.763717454830027176e+00,-1.719240477095573150e+00,-1.671802009426481828e+00,-1.621307791532797138e+00,-1.567608151150076790e+00,-1.510537621337217917e+00,-1.449954367465829286e+00,-1.385776550739443058e+00,-1.318012406480864263e+00,-1.246780952415688315e+00,-1.172321489059908073e+00,-1.094992085595603459e+00,-1.015259025920829172e+00,-9.336800971415651906e-01,-8.508846695641905100e-01,-7.675529226615650513e-01,-6.843955725828569925e-01,-6.021345361044019295e-01,-5.214845743932606803e-01,-4.431360992682472633e-01,-3.677394731307955800e-01,-2.958908210560040053e-01,-2.281188410044743542e-01,-1.648720340326871592e-01,-1.065064344004225394e-01,-5.327482912409560456e-02,-5.318973353739095584e-03,3.733381314248829935e-02,7.476886743559743587e-02,1.071771444993216832e-01,1.348434354471479413e-01,1.581307440238464701e-01,1.774619499410839962e-01,1.933000144847939750e-01,2.061280099089239648e-01,2.164301598541107929e-01,2.246748731590136883e-01,2.313004933646178318e-01,2.367042249475841686e-01,2.412344482381418853e-01,2.451863939863454522e-01,2.488009266797905905e-01,2.522660084350652476e-01,2.557203049157796837e-01,2.592583579995488829e-01,2.629367705817371448e-01,2.667808982242584337e-01,2.707916077558722434e-01,2.749517470143382769e-01,2.792320623995689366e-01,2.835963825585143816e-01,2.880059533633405056e-01,2.924228703798340545e-01,2.968126158279270621e-01,3.011457658100312740e-01,3.053989832016875128e-01,3.095554364351220111e-01,3.136047707718281341e-01,3.175427241790542698e-01,3.213704638519211954e-01,3.250937272638588782e-01,3.287218534292913330e-01,3.322667753825408465e-01,3.357420292981911913e-01,3.391618281387703271e-01,3.425402436188054733e-01,3.458905294545360776e-01,3.492245983040609958e-01,3.525526482331539091e-01,3.558829340536358021e-01,3.592216853771363350e-01,3.625731697496181183e-01,3.659398827547725164e-01,3.693228309076508342e-01,3.727218688773026867e-01,3.761360528716743978e-01,3.795639698044192545e-01,3.830040093834918280e-01,3.864545686461894891e-01,3.899141983334307171e-01,3.933817065393184209e-01,3.968562322889979121e-01,4.003372955146002332e-01,4.038248222643514018e-01,4.073191358241921578e-01,4.108209017550351616e-01,4.143310272746820178e-01,4.178505347013273252e-01,4.213804328872666205e-01,4.249215994133673791e-01,4.284746808064663348e-01,4.320400235910044073e-01,4.356176493883773815e-01,4.392072747636938113e-01,4.428083617483075107e-01,4.464201788259928860e-01,4.500418539461559786e-01,4.536724060638060996e-01,4.573107525155485353e-01,4.609557074655615816e-01,4.646059971909554664e-01,4.682603073937691707e-01,4.719173549794312694e-01,4.755759608743114764e-01,4.792351014032077972e-01,4.828939316108657454e-01,4.865517877703162131e-01,4.902081715831167474e-01,4.938627081176824030e-01,4.975150771648835790e-01,5.011649382152666421e-01,5.048118788029787307e-01,5.084554044551871099e-01,5.120949673050197992e-01,5.157300202315370230e-01,5.193600893954054554e-01,5.229848619081013394e-01,5.266042773884161976e-01,5.302186055626638694e-01,5.338284962788929500e-01,5.374349992346274529e-01,5.410395593996931707e-01,5.446439948443458912e-01,5.482504601903742669e-01,5.518613917277180869e-01,5.554794205056485801e-01,5.591072447332761097e-01,5.627474761683963767e-01,5.664024912009615331e-01,5.700743112465022078e-01,5.737645222712480786e-01,5.774742364541040063e-01,5.812040998791426771e-01,5.849543492897496533e-01,5.887249171554738147e-01,5.925155795451648721e-01,5.963261322427568789e-01,6.001565703958068321e-01,6.040072454482643405e-01,6.078789809069945482e-01,6.117731381625983733e-01,6.156916290216890575e-01,6.196368717228609713e-01,6.236116868913110789e-01,6.276191362417121722e-01,6.316623227515141270e-01,6.357441892840551834e-01,6.398673572016173594e-01,6.440340283957270984e-01,6.482459466725466468e-01,6.525044012693718143e-01,6.568102575410571520e-01,6.611640006443567641e-01,6.655657834571900855e-01,6.700154925637189507e-01,6.745128603363307329e-01,6.790576275174968757e-01,6.836497193010800943e-01,6.882893829083331916e-01,6.929772557030267066e-01,6.977143609682755487e-01,7.025020422820112964e-01,7.073418513959047749e-01,7.122354038862583892e-01,7.171842119841802532e-01,7.221895037344600032e-01,7.272520438532381615e-01,7.323719690072048039e-01,7.375486403033911786e-01,7.427805198041752544e-01,7.480650918923229531e-01,7.533988509067666151e-01,7.587773621500703003e-01,7.641953914156461858e-01,7.696470957139425195e-01,7.751262628196835536e-01,7.806265685485840322e-01,7.861418003896659679e-01,7.916659967321102442e-01,7.971934773717969103e-01,8.027187782692924989e-01,8.082365304208225520e-01,8.137413256530170447e-01,8.192275971867815088e-01,8.246895257876970531e-01,8.301209673560646651e-01,8.355153826124089855e-01,8.408657452328659465e-01,8.461644249579665100e-01,8.514030723565931824e-01,8.565725415168989887e-01,8.616628725331064720e-01,8.666633373650342032e-01,8.715625417510548534e-01,8.763485729578520678e-01,8.810091826657915348e-01,8.855319881042064134e-01,8.899046670182731988e-01,8.941151260624990993e-01,8.981516398513842425e-01,9.020029723595932580e-01,9.056584861127624508e-01,9.091082303900940298e-01,9.123430036698634282e-01,9.153544018518218195e-01,9.181348667413901099e-01,9.206777347657861821e-01,9.229772697696259076e-01,9.250286591822475257e-01,9.268279618763601846e-01,9.283720117603502242e-01,9.296582946580128626e-01,9.306848246843533179e-01,9.314500520058771604e-01,9.319528270268766512e-01,9.321924156793437444e-01,9.321685295299835250e-01,9.318813360387373512e-01,9.313314382881382469e-01,9.305198268470082912e-01,9.294478014606682992e-01,9.281168539831329278e-01,9.265285115880076416e-01,9.246841549918974890e-01,9.225848319454120761e-01,9.202310766989640900e-01,9.176227346014577124e-01,9.147587920704229880e-01,9.116372247102993986e-01,9.082548830562910958e-01,9.046074258146350466e-01,9.006892932068807367e-01,8.964937026616225380e-01,8.920126534242832639e-01,8.872369424367912982e-01,8.821562088756923492e-01,8.767590286372638486e-01,8.710330723749138970e-01,8.649653281117679615e-01,8.585423786407603286e-01,8.517507162648136898e-01,8.445770719625582679e-01,8.370087378217181406e-01,8.290338729095223513e-01,8.206417916146608871e-01,8.118232337256074960e-01,8.025706183225460588e-01,7.928782910589807775e-01,7.827427746390164254e-01,7.721630230808130824e-01,7.611406707805525862e-01,7.496802627122838292e-01,7.377894506729100188e-01,7.254791406039231560e-01,7.127635778144191248e-01,6.996603610638688631e-01,6.861903851866830717e-01,6.723777215430041254e-01,6.582494429959386828e-01,6.438353819034621228e-01,6.291677965520979798e-01,6.142809382709895072e-01,5.992105488125548662e-01,5.839933371957316544e-01,5.686664732301770497e-01,5.532671153667253483e-01,5.378319828584389173e-01,5.223969819743280452e-01,5.069968933449154891e-01,4.916651211025936385e-01,4.764334960585770995e-01,4.613321161895817535e-01,4.463892046247003309e-01,4.316309729465422351e-01,4.170814927162272423e-01,4.027625947324341982e-01,3.886938230899437685e-01,3.748924616771421858e-01,3.613736320050210948e-01,3.481504433652414798e-01,3.352341635314409207e-01,3.226343766646717071e-01,3.103591069883547826e-01,2.984149063159036164e-01,2.868069200504583249e-01,2.755389479902074501e-01,2.646135061138316646e-01,2.540318913524114985e-01,2.437942561881145664e-01,2.338997003653913165e-01,2.243463830086426525e-01,2.151316581289681173e-01,2.062522319062030929e-01,1.977043250731149726e-01,1.894838156287204090e-01,1.815863483564411074e-01,1.740074132889498359e-01,1.667423992787026577e-01,1.597866214074086799e-01,1.531353116104343104e-01,1.467835644963839670e-01,1.407262475528655854e-01,1.349578995260635739e-01,1.294726387174558735e-01,1.242640916388292605e-01,1.193253451051876912e-01,1.146489200101413752e-01,1.102267599877466420e-01,1.060502337052568328e-01,1.021101634460042512e-01,9.839689116880027953e-02,9.490037431863326822e-02,9.161029402951503808e-02,8.851616538942937151e-02,8.560744605771467008e-02,8.287364170941342867e-02,8.030440937055197126e-02,7.788965762060909293e-02,7.561963818714896590e-02,7.348502765039213735e-02,7.147700467023328230e-02,6.958732202235558273e-02,6.780835798743845011e-02,6.613312672569703066e-02,6.455523689018534406e-02,6.306880089078485685e-02,6.166830849285654531e-02,6.034848765620001027e-02,5.910417729793383118e-02,5.793023201911307041e-02,5.682147657035176158e-02,5.577272348620417042e-02,5.477885013740468184e-02,5.383490903092152946e-02,5.293623479585318065e-02,5.207852114535466148e-02,5.125786208764123580e-02,5.047076144621678861e-02,4.971411134867050052e-02,4.898514514918235474e-02,4.828138411087408433e-02,4.760059925661863645e-02,4.694079188242529510e-02,4.630017124497795566e-02,4.567709876528280172e-02,4.506998684705092184e-02,4.447717255551082716e-02,4.389680496222594930e-02,4.332677712312320295e-02,4.276470943017360304e-02,4.220797477349911425e-02,4.165376122621902016e-02,4.109917836073772451e-02,4.054140833336801475e-02,3.997788718741678710e-02,3.940648870861553077e-02,3.882567946025231725e-02,3.823462245749131849e-02,3.763322231135166063e-02,3.702211589818905219e-02,3.640261566051269243e-02,3.558744133193187525e-02,3.490264542265313769e-02,3.420377799164408400e-02,3.360412115527751375e-02,3.294791310430925796e-02,3.241682914038322705e-02,3.174376241349158301e-02,3.086500589632042157e-02,2.957900534454702829e-02,2.933749970620317879e-02,2.871156044351422937e-02,2.775627221975680500e-02,2.766422577542730285e-02,2.628589219602349425e-02,2.605042766451469080e-02,2.770346171407808353e-02,2.616732853199055589e-02,2.567671035646820407e-02,2.245105602751917145e-02,2.324141834789321057e-02,2.840616313967344805e-02,2.780227341668619831e-02,3.389746651147776402e-02,0.000000000000000000e+00,0.000000000000000000e+00,0.000000000000000000e+00,0.000000000000000000e+00,0.000000000000000000e+00,0.000000000000000000e+00,0.000000000000000000e+00,0.000000000000000000e+00,0.000000000000000000e+00,0.000000000000000000e+00,0.000000000000000000e+00,0.000000000000000000e+00,0.000000000000000000e+00,0.000000000000000000e+00,0.000000000000000000e+00,0.000000000000000000e+00,0.000000000000000000e+00,0.000000000000000000e+00,0.000000000000000000e+00,0.000000000000000000e+00,0.000000000000000000e+00,0.000000000000000000e+00,0.000000000000000000e+00,0.000000000000000000e+00,0.000000000000000000e+00,0.000000000000000000e+00,0.000000000000000000e+00,0.000000000000000000e+00,0.000000000000000000e+00,0.000000000000000000e+00,0.000000000000000000e+00,0.000000000000000000e+00,0.000000000000000000e+00,0.000000000000000000e+00,0.000000000000000000e+00,0.000000000000000000e+00,0.000000000000000000e+00,0.000000000000000000e+00,0.000000000000000000e+00,0.000000000000000000e+00,0.000000000000000000e+00,0.000000000000000000e+00,0.000000000000000000e+00,0.000000000000000000e+00,0.000000000000000000e+00,0.000000000000000000e+00,0.000000000000000000e+00,0.000000000000000000e+00,0.000000000000000000e+00,0.000000000000000000e+00,0.000000000000000000e+00,0.000000000000000000e+00,0.000000000000000000e+00,0.000000000000000000e+00,0.000000000000000000e+00,0.000000000000000000e+00,0.000000000000000000e+00,0.000000000000000000e+00
7.100000000000000000e+01,0.000000000000000000e+00,1.000000000000000000e+00,1.556046697778976909e-03,1.251579674141853078e-03,9.460294591436692975e-04,6.395103104416290356e-04,3.318973773860161517e-04,2.286083489913291663e-05,-2.880599773510902103e-04,-6.013565679937861669e-04,-9.174421569104818704e-04,-1.236549812084967179e-03,-1.558651678199940525e-03,-1.883413207150678786e-03,-2.210195104707552392e-03,-2.538105435379676457e-03,-2.866094061118044673e-03,-3.193075887969739918e-03,-3.518058529822948224e-03,-3.840242290371855688e-03,-4.159073378685411264e-03,-4.474255102501863667e-03,-4.785733710021115167e-03,-5.093671692605959700e-03,-5.398410699790604124e-03,-5.700416491984240490e-03,-6.000197150596231314e-03,-6.298195706139873493e-03,-6.594671447233782860e-03,-6.889592417817512297e-03,-7.182562892129208156e-03,-7.472805668116450084e-03,-7.759216157764147435e-03,-8.040499874951621134e-03,-8.315379477426748656e-03,-8.582817906817793996e-03,-8.842189978231636618e-03,-9.093364829917382694e-03,-9.336703993764945350e-03,-9.572996932831770445e-03,-9.803349879904854972e-03,-1.002904040178012254e-02,-1.025135976132282578e-02,-1.047147562761627931e-02,-1.069034400192497326e-02,-1.090867985521386772e-02,-1.112697268745493732e-02,-1.134552103983080089e-02,-1.156446586449529253e-02,-1.178382010600537329e-02,-1.200350570499373291e-02,-1.222340613028320873e-02,-1.244342389363545069e-02,-1.266351810870561430e-02,-1.288370312531770222e-02,-1.310400769793304727e-02,-1.332440856308815536e-02,-1.354475890101041261e-02,-1.376473296549514912e-02,-1.398379960943454785e-02,-1.420121974127465381e-02,-1.441605146331851814e-02,-1.462715588002542338e-02,-1.483321422579810846e-02,-1.503277321425124276e-02,-1.522433006101915273e-02,-1.540645320044766418e-02,-1.557791073041083808e-02,-1.573776903348938355e-02,-1.588544350185937606e-02,-1.602071167982318731e-02,-1.614371416494482514e-02,-1.625496052327821128e-02,-1.635532885282647148e-02,-1.644603043516813107e-02,-1.652853130402449217e-02,-1.660445274796348500e-02,-1.667547397354281896e-02,-1.674324185589715769e-02,-1.680928712911075942e-02,-1.687495486348736598e-02,-1.694135718196874280e-02,-1.700934615624843937e-02,-1.707950189220114670e-02,-1.715213578767782465e-02,-1.722730967543231045e-02,-1.730486682458813597e-02,-1.738446702481196565e-02,-1.746561735577101260e-02,-1.754769315782867684e-02,-1.762995087147362430e-02,-1.771154321058317910e-02,-1.779155314611000765e-02,-1.786906163915082807e-02,-1.794325396158001282e-02,-1.801355587793690774e-02,-1.807977452041627242e-02,-1.814220091694960027e-02,-1.820162881114924941e-02,-1.825926980204845701e-02,-1.831658441929020012e-02,-1.837507730557789640e-02,-1.843610703608118337e-02,-1.850074431120799986e-02,-1.856969355757268764e-02,-1.864327635488004578e-02,-1.872145758419026598e-02,-1.880388346004843378e-02,-1.888990392963120490e-02,-1.897856804216002669e-02,-1.906859958911458902e-02,-1.915837661387375865e-02,-1.924594900247627444e-02,-1.932912484683500451e-02,-1.940563668538428446e-02,-1.947337285527495077e-02,-1.953063859540070737e-02,-1.957640208749029595e-02,-1.961048230125765623e-02,-1.963364881925235006e-02,-1.964762816601922993e-02,-1.965503248411135107e-02,-1.965922685988000587e-02,-1.966413612160505461e-02,-1.967398152896247115e-02,-1.969294437573516562e-02,-1.972477574276554346e-02,-1.977239418333814197e-02,-1.983751203189893300e-02,-1.992030037728632214e-02,-2.001906940097219340e-02,-2.012993961810411250e-02,-2.024651447890852760e-02,-2.035960372282619169e-02,-2.045705662689783003e-02,-2.052374155869901573e-02,-2.054167839678794003e-02,-2.049032036687385358e-02,-2.034699404516435162e-02,-2.008751928092253336e-02,-1.968702499369056128e-02,-1.912095663537831738e-02,-1.836625389559544408e-02,-1.740266392553136907e-02,-1.621413086302125883e-02,-1.479016213464891261e-02,-1.312703600996501484e-02,-1.122871540509199142e-02,-9.107379029370586340e-03,-6.783538369801957700e-03,-4.285737883568838287e-03,-1.649839664139094797e-03,1.082099851202231091e-03,3.863337919330583556e-03,6.644293894194372094e-03,9.374662053270876177e-03,1.200567279399952086e-02,1.449235012899387567e-02,1.679558678707437913e-02,1.888383784454962869e-02,2.073422915606949052e-02,2.233292377464593526e-02,2.367471674402232482e-02,2.476199840239866681e-02,2.560334520310067474e-02,2.621199944749793079e-02,2.660440147988980472e-02,2.679881922201540756e-02,2.681405934376885833e-02,2.666826432607382821e-02,2.637786730495570234e-02,2.595684044657977849e-02,2.541638603051306691e-02,2.476516002545365094e-02,2.401000487826583304e-02,2.315703726352595984e-02,2.221280968229443972e-02,2.118517880545155163e-02,2.008353938265418012e-02,1.891826693734936088e-02,1.769951190613021363e-02,1.643577122805854260e-02,1.513278187453445667e-02,1.379316406412839716e-02,1.241694613283777712e-02,1.100277969610264674e-02,9.549462471332828550e-03,8.057391113914173786e-03,6.529699287933915346e-03,4.972974154648235855e-03,3.397519786638551927e-03,1.817163617655277730e-03,2.486223576050604106e-04,-1.289527247074075556e-03,-2.778188218083187371e-03,-4.199254128753956636e-03,-5.537091334316191979e-03,-6.779768961817239821e-03,-7.919861962136617167e-03,-8.954761393245535411e-03,-9.886530505774440702e-03,-1.072139450359846195e-02,-1.146895794946595735e-02,-1.214124182197066915e-02,-1.275162832521763503e-02,-1.331379203248622863e-02,-1.384069692757445777e-02,-1.434375542588129347e-02,-1.483224254747981911e-02,-1.531300704236762504e-02,-1.579046132260504900e-02,-1.626683873240561753e-02,-1.674277195677346605e-02,-1.721825775544191459e-02,-1.769395875508315494e-02,-1.817261528836977211e-02,-1.866022069213690154e-02,-1.916663118164168081e-02,-1.970542423558102607e-02,-2.029299499841922400e-02,-2.094700839722051650e-02,-2.168440433928330718e-02,-2.251921717657369079e-02,-2.346052193496329930e-02,-2.451083309958279263e-02,-2.566523095205590355e-02,-2.691136558827300282e-02,-2.823031123955615021e-02,-2.959807362292041916e-02,-3.098745558304808606e-02,-3.236998217742342171e-02,-3.371765334621307925e-02,-3.500439301706206180e-02,-3.620715310594468939e-02,-3.730667493362472414e-02,-3.828791331494338368e-02,-3.914012149138087343e-02,-3.985660700330635742e-02,-4.043420907806361680e-02,-4.087259742602848689e-02,-4.117351859674002468e-02,-4.134011027452122455e-02,-4.137637838590790124e-02,-4.128689505477333571e-02,-4.107673562702306158e-02,-4.075164310504961890e-02,-4.031838717249325299e-02,-3.978526604175103287e-02,-3.916268840108450000e-02,-3.846376992577479198e-02,-3.770487736630409592e-02,-3.690605795909316506e-02,-3.609130590629930357e-02,-3.528862994235031775e-02,-3.452988592378677252e-02,-3.385032494898618932e-02,-3.328779097313312729e-02,-3.288149785726576790e-02,-3.267033003785102530e-02,-3.269064137888769844e-02,-3.297357470683320163e-02,-3.354199067313061444e-02,-3.440717160610021891e-02,-3.556554088891377557e-02,-3.699569875301350619e-02,-3.865611975751153534e-02,-4.048390540560568851e-02,-4.239507274508140522e-02,-4.428702334110099642e-02,-4.604408473861917872e-02,-4.754725551250904569e-02,-4.868930178582259877e-02,-4.939591904158637664e-02,-4.965266878446955578e-02,-4.953591141184970209e-02,-4.924432776788363608e-02,-4.912635435148228480e-02,-4.969842110131245799e-02,-5.164955385462840359e-02,-5.582960689459374320e-02,-6.322060391910414023e-02,-7.489267890113447679e-02,-9.194753127699219208e-02,-1.154532792797626217e-01,-1.463754130354643357e-01,-1.855092089140245593e-01,-2.334190586563106573e-01,-2.903892669819168604e-01,-3.563892018984473054e-01,-4.310541439642797679e-01,-5.136822749154503764e-01,-6.032475101605536683e-01,-6.984269216505760713e-01,-7.976406157431275012e-01,-8.991014153333262149e-01,-1.000871624123233827e+00,-1.100924616612396711e+00,-1.197209641062873420e+00,-1.287718229875900233e+00,-1.370549758291760511e+00,-1.443972739108108305e+00,-1.506478240481774256e+00,-1.556822505110700083e+00,-1.594057020918730583e+00,-1.617545561519369901e+00,-1.626968992666527836e+00,-1.622319886014190526e+00,-1.603889752165996718e+00,-1.572251341573224881e+00,-1.528236918939560374e+00,-1.472911605818573610e+00,-1.407540064656160217e+00,-1.333545675694037147e+00,-1.252463502425842146e+00,-1.165890361062539071e+00,-1.075435985577188003e+00,-9.826785046545319924e-01,-8.891259460710271290e-01,-7.961840625739223798e-01,-7.051299807494321170e-01,-6.170911442756567000e-01,-5.330294013382399498e-01,-4.537304133013610463e-01,-3.797987278050954374e-01,-3.116589488032157074e-01,-2.495633285201963036e-01,-1.936055554919026422e-01,-1.437395376209888720e-01,-9.980105000573728791e-02,-6.152986419157522452e-02,-2.859056373196242756e-02,-5.912093653358656015e-04,2.290022299049709886e-02,4.234136535341874452e-02,5.820264089505377408e-02,7.095585480833919989e-02,8.106395799352650311e-02,8.897179151822094678e-02,9.509775445214718737e-02,9.982651808593683007e-02,1.035030372350889405e-01,1.064281347239798836e-01,1.088558704023283308e-01,1.109927902964356616e-01,1.129990224424618633e-01,1.149910614388642977e-01,1.170459697219618789e-01,1.192066344292648100e-01,1.214876735006969605e-01,1.238815895156183539e-01,1.263648111455150658e-01,1.289033192746186773e-01,1.314576220297394848e-01,1.339869267616294046e-01,1.364524476708066092e-01,1.388198598814492923e-01,1.410609571946024876e-01,1.431546006465978238e-01,1.450870584082435133e-01,1.468518361157872820e-01,1.484490939240888929e-01,1.498847499461025412e-01,1.511693758667027043e-01,1.523169945697678551e-01,1.533438865871675216e-01,1.542674970529170075e-01,1.551055068185396846e-01,1.558750943348616025e-01,1.565923787881030316e-01,1.572720159244465621e-01,1.579269225635280272e-01,1.585681193944616096e-01,1.592046860319800694e-01,1.598438149566158151e-01,1.604909410821791227e-01,1.611499213592520741e-01,1.618232471153855934e-01,1.625122819012436437e-01,1.632175169143553206e-01,1.639388232962560588e-01,1.646756695529879300e-01,1.654272801906832013e-01,1.661927359302552698e-01,1.669710311280714898e-01,1.677610994114416276e-01,1.685618151842547541e-01,1.693719871375068409e-01,1.701903625371943840e-01,1.710156533997851114e-01,1.718465909205381392e-01,1.726820077208386095e-01,1.735209297770203829e-01,1.743626488788310169e-01,1.752067594923124860e-01,1.760531671884762173e-01,1.769020837240684874e-01,1.777540099832973786e-01,1.786096910668078241e-01,1.794700306378162191e-01,1.803359721476218702e-01,1.812083717484432588e-01,1.820878908947163033e-01,1.829749286153347365e-01,1.838696003469568463e-01,1.847717596484319824e-01,1.856810533000817498e-01,1.865969940139737826e-01,1.875190295727667822e-01,1.884465930337013151e-01,1.893791347126170255e-01,1.903161474041411838e-01,1.912571930866071857e-01,1.922019279161544247e-01,1.931501136978664712e-01,1.941016066021487851e-01,1.950563252581309914e-01,1.960142077846535047e-01,1.969751636053715116e-01,1.979390191236092833e-01,1.989054565236328675e-01,1.998739515281479640e-01,2.008437230617917402e-01,2.018137089374422988e-01,2.027825742794612807e-01,2.037487521106375321e-01,2.047105160195842599e-01,2.056660853536154132e-01,2.066137562800104410e-01,2.075520442219533079e-01,2.084798196438560347e-01,2.093964135731779808e-01,2.103016634621558412e-01,2.111958775029596780e-01,2.120797191245607782e-01,2.129540396083124953e-01,2.138196986613732087e-01,2.146774053056222653e-01,2.155275966886581185e-01,2.163703627954411124e-01,2.172054209323370233e-01,2.180321404735567625e-01,2.188496114116228464e-01,2.196567416007635387e-01,2.204523634475330507e-01,2.212353304647732555e-01,2.220045861340348703e-01,2.227591974250753282e-01,2.234983604045520378e-01,2.242213906225389297e-01,2.249277019639426556e-01,2.256167689890309080e-01,2.262880715386741126e-01,2.269410327812890760e-01,2.275749703255724177e-01,2.281890726522237123e-01,2.287823926715641110e-01,2.293538358534620014e-01,2.299021248130704020e-01,2.304257416919500423e-01,2.309228733992007010e-01,2.313913965973840858e-01,2.318289260662513840e-01,2.322329207136214491e-01,2.326008196059430044e-01,2.329301773522302887e-01,2.332187768251963722e-01,2.334647039196317275e-01,2.336663707774695176e-01,2.338224845685865916e-01,2.339319817049724803e-01,2.339939569439669909e-01,2.340075992632784652e-01,2.339721262701327520e-01,2.338867110234390811e-01,2.337504124488248292e-01,2.335621303952927219e-01,2.333205964293414147e-01,2.330243918076182197e-01,2.326719773975705896e-01,2.322617304464871246e-01,2.317919863476838316e-01,2.312610679960088733e-01,2.306672751016695666e-01,2.300088229661420014e-01,2.292837503959388179e-01,2.284898325962008148e-01,2.276245309968516761e-01,2.266850003288680138e-01,2.256681604968233668e-01,2.245708238223806663e-01,2.233898529972387081e-01,2.221223234028185389e-01,2.207656736286308929e-01,2.193178374600223135e-01,2.177773473190795228e-01,2.161433842219844248e-01,2.144157455298612847e-01,2.125947243361866190e-01,2.106809231536937166e-01,2.086750354242194183e-01,2.065776224648156467e-01,2.043889032695696550e-01,2.021085746615803591e-01,1.997356938236662660e-01,1.972686580734928641e-01,1.947052863668556622e-01,1.920429709559315357e-01,1.892788626258610496e-01,1.864100700723679005e-01,1.834338640618765337e-01,1.803478740541565595e-01,1.771502595904284327e-01,1.738398407180381522e-01,1.704161840553842233e-01,1.668796513985855157e-01,1.632314110327809931e-01,1.594734016337824578e-01,1.556082524201141126e-01,1.516391898351333867e-01,1.475699615913747542e-01,1.434047862462817513e-01,1.391483295787271368e-01,1.348057226484828119e-01,1.303826391389636963e-01,1.258854276490721791e-01,1.213212665723250178e-01,1.166982996232336367e-01,1.120257246455288042e-01,1.073138308406952623e-01,1.025739893765471450e-01,9.781859588020680452e-02,9.306095915132737983e-02,8.831514674772078521e-02,8.359582132278815803e-02,7.891809810943577197e-02,7.429742162481096923e-02,6.974943303425733265e-02,6.528980036520846963e-02,6.093400312679730924e-02,5.669708214271572400e-02,5.259336866506452574e-02,4.863619528369819006e-02,4.483758963014625176e-02,4.120797290276856373e-02,3.775590534513452445e-02,3.448791843276922953e-02,3.140845251382381326e-02,2.851989128948632241e-02,2.582266611227035727e-02,2.331540132393272735e-02,2.099507617805175877e-02,1.885718221416606000e-02,1.689586167870124264e-02,1.510402457272412222e-02,1.347345870182635463e-02,1.199496124943302301e-02,1.065851694391674667e-02,9.453528275451475102e-03,8.369084222814272833e-03,7.394242314162611379e-03,6.518295226875776317e-03,5.730999200988701886e-03,5.022749953650850092e-03,4.384698641287599653e-03,3.808814258777414204e-03,3.287917036993300793e-03,2.815710548772587182e-03,2.386819304473054501e-03,1.996811854883117666e-03,1.642183510313475472e-03,1.320287907380331529e-03,1.029220332701014486e-03,7.676610015526309566e-04,5.346942962621532109e-04,3.296290972902014057e-04,1.518440331427524772e-04,6.701618078116660433e-07,-1.246876710740046684e-04,-2.251961112392258826e-04,-3.020131988352208678e-04,-3.564884221915876994e-04,-3.901384963444122912e-04,-4.045836412437387982e-04,-4.014330708085766977e-04,-3.821317919944369019e-04,-3.478055482175771503e-04,-2.991457859493297706e-04,-2.363619826793682255e-04,-1.592092445333670523e-04,-6.708470023312678246e-05,4.082283913288564404e-05,1.653534069005977163e-04,3.071977934844486043e-04,4.667538339680723158e-04,6.440399012973603175e-04,8.386673387540794465e-04,1.049851252773860086e-03,1.276430392858448519e-03,1.516878798434767453e-03,1.769315011879282100e-03,2.031532671061461563e-03,2.301077647136063383e-03,2.575379144606781447e-03,2.851917875371684247e-03,3.128402791432755015e-03,3.402930459950887464e-03,3.674105885761892211e-03,3.941110672183596383e-03,4.203715613435699168e-03,4.462237987123635410e-03,4.717441527028695160e-03,4.970388916179136959e-03,5.222276385515403109e-03,5.474280214429727218e-03,5.727424103089209968e-03,5.982462533432536880e-03,6.239783994892948021e-03,6.499350868858579794e-03,6.760687349464138650e-03,7.022908322949317043e-03,7.284770207721771515e-03,7.544727584556004500e-03,7.800991122230887045e-03,8.051593115944761722e-03,8.294471853829527355e-03,8.527583202672727597e-03,8.749036395453541406e-03,8.957236710332123347e-03,9.151009520355215393e-03,9.329681455800598044e-03,9.493103802472419375e-03,9.641615996019434545e-03,9.775959235586880597e-03,9.897161379883083129e-03,1.000642025609938500e-02,1.010500915109185244e-02,1.019421608937997811e-02,1.027530936240688732e-02,1.034950722754818427e-02,1.041793380849679283e-02,1.048156066830462606e-02,1.054115012178635791e-02,1.059722252988654079e-02,1.065005603670354621e-02,1.069970025700579287e-02,1.074597578581475490e-02,1.078845436231300886e-02,1.082644560244694180e-02,1.085902385045203235e-02,1.088511030279645277e-02,1.090359966474594745e-02,1.091350385010303459e-02,1.091408320090713271e-02,1.090493981143407336e-02,1.088604971209594478e-02,1.085772037628021658e-02,1.082048331511480110e-02,1.077495492363905218e-02,1.072170773913312149e-02,1.066118210719917657e-02,1.059363957575706894e-02,1.051913927376822884e-02,1.043752869960484601e-02,1.034846253336316191e-02,1.025146244342763427e-02,1.014600967407417939e-02,1.003164749595288410e-02,9.908071564749834637e-03,9.775198448832917580e-03,9.633214782313118119e-03,9.482603980093174192e-03,9.324129276794455856e-03,9.158751623932268396e-03,8.987489836823120762e-03,8.811262503936314813e-03,8.630758918481898703e-03,8.446369582438096463e-03,8.258182830486897330e-03,8.066035466402289231e-03,7.869595451445559817e-03,7.668452383924628281e-03,7.462192809387552077e-03,7.250440897091001667e-03,7.032855826291104298e-03,6.809099153286866588e-03,6.578807841048438243e-03,6.341609507686081330e-03,6.097190716061639398e-03,5.845398598962910433e-03,5.586340128113645963e-03,5.320444973729566290e-03,5.048473358169559486e-03,4.771466794022850323e-03,4.455803806051482005e-03,4.169138046816003515e-03,3.769778149080937803e-03,3.392392721856802781e-03,3.064567084493053425e-03,2.885274182747937181e-03,2.455462262443462631e-03,2.363067479407920425e-03,2.428689209355612642e-03,2.075768360543308287e-03,1.536520740968178728e-03,1.462165180635406668e-03,7.687239136903614538e-04,7.091099658806989661e-04,-3.042951804300104502e-04,-1.542707070899513189e-03,-2.442227963895121645e-03,-4.481235416007585230e-03,-5.188634863828154101e-03,-9.762014612016579190e-03,-1.834615605498253824e-02,-3.444246096351981368e-02,-3.428649483947432408e-02,-3.411878650603025753e-02,0.000000000000000000e+00,0.000000000000000000e+00,0.000000000000000000e+00,0.000000000000000000e+00,0.000000000000000000e+00,0.000000000000000000e+00,0.000000000000000000e+00,0.000000000000000000e+00,0.000000000000000000e+00,0.000000000000000000e+00,0.000000000000000000e+00,0.000000000000000000e+00,0.000000000000000000e+00,0.000000000000000000e+00,0.000000000000000000e+00,0.000000000000000000e+00,0.000000000000000000e+00,0.000000000000000000e+00,0.000000000000000000e+00,0.000000000000000000e+00,0.000000000000000000e+00,0.000000000000000000e+00,0.000000000000000000e+00,0.000000000000000000e+00,0.000000000000000000e+00,0.000000000000000000e+00,0.000000000000000000e+00,0.000000000000000000e+00,0.000000000000000000e+00,0.000000000000000000e+00,0.000000000000000000e+00,0.000000000000000000e+00,0.000000000000000000e+00,0.000000000000000000e+00,0.000000000000000000e+00
